Feb. 22, 2024   15:32:56
Square Wave Voltammetry
File: c:\users\fu\desktop\noel\2024_02_22_ml2\2024_02_22_cbz16_30.txt
Data Source:  Experiment
Instrument Model:  CHI650E
Header: 
Note: 

Init E (V) = 0.5
Final E (V) = 1.2
Incr E (V) = 0.004
Amplitude (V) = 0.025
Frequency (Hz) = 15
Quiet Time (sec) = 5
Sensitivity (A/V) = 1e-5

Difference:

Forward:

Reverse:

Potential/V, Diff(i/A), For(i/A), Rev(i/A)

0.504, -6.125e-7, -7.224e-7, -1.099e-7
0.508, -6.094e-7, -7.078e-7, -9.840e-8
0.512, -6.095e-7, -7.170e-7, -1.074e-7
0.516, -6.221e-7, -7.335e-7, -1.114e-7
0.520, -6.236e-7, -7.481e-7, -1.245e-7
0.524, -6.439e-7, -7.759e-7, -1.320e-7
0.528, -6.484e-7, -7.958e-7, -1.474e-7
0.532, -6.714e-7, -8.165e-7, -1.451e-7
0.536, -6.709e-7, -8.340e-7, -1.631e-7
0.540, -6.896e-7, -8.591e-7, -1.695e-7
0.544, -6.933e-7, -8.819e-7, -1.886e-7
0.548, -7.060e-7, -9.017e-7, -1.958e-7
0.552, -7.104e-7, -9.228e-7, -2.124e-7
0.556, -7.356e-7, -9.552e-7, -2.197e-7
0.560, -7.398e-7, -9.763e-7, -2.365e-7
0.564, -7.475e-7, -9.945e-7, -2.469e-7
0.568, -7.497e-7, -1.015e-6, -2.649e-7
0.572, -7.644e-7, -1.044e-6, -2.795e-7
0.576, -7.757e-7, -1.063e-6, -2.869e-7
0.580, -7.898e-7, -1.093e-6, -3.034e-7
0.584, -7.991e-7, -1.116e-6, -3.165e-7
0.588, -8.131e-7, -1.140e-6, -3.273e-7
0.592, -8.170e-7, -1.159e-6, -3.420e-7
0.596, -8.261e-7, -1.191e-6, -3.647e-7
0.600, -8.369e-7, -1.211e-6, -3.742e-7
0.604, -8.424e-7, -1.240e-6, -3.973e-7
0.608, -8.616e-7, -1.265e-6, -4.031e-7
0.612, -8.680e-7, -1.287e-6, -4.187e-7
0.616, -8.828e-7, -1.319e-6, -4.358e-7
0.620, -8.909e-7, -1.343e-6, -4.519e-7
0.624, -8.974e-7, -1.367e-6, -4.694e-7
0.628, -9.144e-7, -1.396e-6, -4.818e-7
0.632, -9.184e-7, -1.418e-6, -4.993e-7
0.636, -9.324e-7, -1.448e-6, -5.152e-7
0.640, -9.453e-7, -1.474e-6, -5.286e-7
0.644, -9.548e-7, -1.499e-6, -5.439e-7
0.648, -9.562e-7, -1.524e-6, -5.673e-7
0.652, -9.775e-7, -1.558e-6, -5.803e-7
0.656, -9.823e-7, -1.580e-6, -5.972e-7
0.660, -9.997e-7, -1.613e-6, -6.135e-7
0.664, -1.008e-6, -1.640e-6, -6.317e-7
0.668, -1.015e-6, -1.664e-6, -6.489e-7
0.672, -1.026e-6, -1.698e-6, -6.719e-7
0.676, -1.044e-6, -1.730e-6, -6.862e-7
0.680, -1.044e-6, -1.746e-6, -7.020e-7
0.684, -1.061e-6, -1.784e-6, -7.232e-7
0.688, -1.078e-6, -1.813e-6, -7.351e-7
0.692, -1.083e-6, -1.842e-6, -7.590e-7
0.696, -1.092e-6, -1.874e-6, -7.826e-7
0.700, -1.114e-6, -1.908e-6, -7.938e-7
0.704, -1.121e-6, -1.936e-6, -8.152e-7
0.708, -1.139e-6, -1.972e-6, -8.324e-7
0.712, -1.146e-6, -2.005e-6, -8.596e-7
0.716, -1.159e-6, -2.031e-6, -8.718e-7
0.720, -1.170e-6, -2.067e-6, -8.965e-7
0.724, -1.196e-6, -2.108e-6, -9.118e-7
0.728, -1.198e-6, -2.131e-6, -9.330e-7
0.732, -1.213e-6, -2.172e-6, -9.595e-7
0.736, -1.231e-6, -2.208e-6, -9.764e-7
0.740, -1.242e-6, -2.240e-6, -9.976e-7
0.744, -1.252e-6, -2.279e-6, -1.027e-6
0.748, -1.273e-6, -2.316e-6, -1.044e-6
0.752, -1.278e-6, -2.351e-6, -1.073e-6
0.756, -1.306e-6, -2.396e-6, -1.090e-6
0.760, -1.319e-6, -2.433e-6, -1.114e-6
0.764, -1.334e-6, -2.472e-6, -1.138e-6
0.768, -1.343e-6, -2.506e-6, -1.164e-6
0.772, -1.368e-6, -2.553e-6, -1.186e-6
0.776, -1.376e-6, -2.585e-6, -1.209e-6
0.780, -1.397e-6, -2.636e-6, -1.238e-6
0.784, -1.416e-6, -2.674e-6, -1.258e-6
0.788, -1.430e-6, -2.719e-6, -1.289e-6
0.792, -1.440e-6, -2.756e-6, -1.316e-6
0.796, -1.464e-6, -2.808e-6, -1.344e-6
0.800, -1.479e-6, -2.846e-6, -1.367e-6
0.804, -1.493e-6, -2.893e-6, -1.401e-6
0.808, -1.518e-6, -2.943e-6, -1.425e-6
0.812, -1.530e-6, -2.987e-6, -1.457e-6
0.816, -1.547e-6, -3.035e-6, -1.488e-6
0.820, -1.568e-6, -3.081e-6, -1.514e-6
0.824, -1.579e-6, -3.126e-6, -1.548e-6
0.828, -1.596e-6, -3.183e-6, -1.587e-6
0.832, -1.630e-6, -3.232e-6, -1.602e-6
0.836, -1.637e-6, -3.283e-6, -1.647e-6
0.840, -1.662e-6, -3.335e-6, -1.673e-6
0.844, -1.668e-6, -3.379e-6, -1.710e-6
0.848, -1.695e-6, -3.444e-6, -1.749e-6
0.852, -1.707e-6, -3.488e-6, -1.781e-6
0.856, -1.728e-6, -3.548e-6, -1.820e-6
0.860, -1.749e-6, -3.606e-6, -1.857e-6
0.864, -1.771e-6, -3.662e-6, -1.891e-6
0.868, -1.793e-6, -3.723e-6, -1.930e-6
0.872, -1.813e-6, -3.778e-6, -1.965e-6
0.876, -1.832e-6, -3.839e-6, -2.007e-6
0.880, -1.853e-6, -3.895e-6, -2.043e-6
0.884, -1.870e-6, -3.961e-6, -2.091e-6
0.888, -1.900e-6, -4.020e-6, -2.120e-6
0.892, -1.907e-6, -4.080e-6, -2.174e-6
0.896, -1.935e-6, -4.145e-6, -2.210e-6
0.900, -1.950e-6, -4.205e-6, -2.255e-6
0.904, -1.980e-6, -4.279e-6, -2.298e-6
0.908, -2.007e-6, -4.339e-6, -2.332e-6
0.912, -2.017e-6, -4.406e-6, -2.389e-6
0.916, -2.058e-6, -4.479e-6, -2.421e-6
0.920, -2.076e-6, -4.541e-6, -2.466e-6
0.924, -2.104e-6, -4.619e-6, -2.515e-6
0.928, -2.131e-6, -4.687e-6, -2.556e-6
0.932, -2.146e-6, -4.758e-6, -2.612e-6
0.936, -2.179e-6, -4.834e-6, -2.655e-6
0.940, -2.203e-6, -4.902e-6, -2.699e-6
0.944, -2.232e-6, -4.979e-6, -2.747e-6
0.948, -2.259e-6, -5.063e-6, -2.805e-6
0.952, -2.286e-6, -5.135e-6, -2.848e-6
0.956, -2.316e-6, -5.219e-6, -2.903e-6
0.960, -2.355e-6, -5.303e-6, -2.947e-6
0.964, -2.376e-6, -5.379e-6, -3.003e-6
0.968, -2.418e-6, -5.470e-6, -3.052e-6
0.972, -2.445e-6, -5.558e-6, -3.113e-6
0.976, -2.488e-6, -5.650e-6, -3.162e-6
0.980, -2.524e-6, -5.736e-6, -3.213e-6
0.984, -2.558e-6, -5.834e-6, -3.276e-6
0.988, -2.609e-6, -5.936e-6, -3.326e-6
0.992, -2.643e-6, -6.027e-6, -3.384e-6
0.996, -2.689e-6, -6.134e-6, -3.445e-6
1.000, -2.742e-6, -6.243e-6, -3.502e-6
1.004, -2.784e-6, -6.348e-6, -3.564e-6
1.008, -2.825e-6, -6.455e-6, -3.630e-6
1.012, -2.886e-6, -6.581e-6, -3.695e-6
1.016, -2.934e-6, -6.692e-6, -3.757e-6
1.020, -2.990e-6, -6.818e-6, -3.827e-6
1.024, -3.049e-6, -6.942e-6, -3.893e-6
1.028, -3.104e-6, -7.063e-6, -3.958e-6
1.032, -3.163e-6, -7.196e-6, -4.033e-6
1.036, -3.231e-6, -7.329e-6, -4.097e-6
1.040, -3.276e-6, -7.451e-6, -4.175e-6
1.044, -3.327e-6, -7.575e-6, -4.248e-6
1.048, -3.386e-6, -7.709e-6, -4.323e-6
1.052, -3.437e-6, -7.830e-6, -4.393e-6
1.056, -3.480e-6, -7.951e-6, -4.471e-6
1.060, -3.534e-6, -8.079e-6, -4.545e-6
1.064, -3.573e-6, -8.190e-6, -4.617e-6
1.068, -3.614e-6, -8.311e-6, -4.697e-6
1.072, -3.671e-6, -8.428e-6, -4.758e-6
1.076, -3.690e-6, -8.532e-6, -4.842e-6
1.080, -3.731e-6, -8.646e-6, -4.915e-6
1.084, -3.773e-6, -8.758e-6, -4.985e-6
1.088, -3.817e-6, -8.879e-6, -5.063e-6
1.092, -3.855e-6, -8.994e-6, -5.138e-6
1.096, -3.906e-6, -9.118e-6, -5.212e-6
1.100, -3.953e-6, -9.248e-6, -5.295e-6
1.104, -4.011e-6, -9.380e-6, -5.369e-6
1.108, -4.057e-6, -9.508e-6, -5.451e-6
1.112, -4.118e-6, -9.659e-6, -5.541e-6
1.116, -4.179e-6, -9.797e-6, -5.617e-6
1.120, -4.244e-6, -9.941e-6, -5.698e-6
1.124, -4.304e-6, -1.010e-5, -5.798e-6
1.128, -4.373e-6, -1.026e-5, -5.883e-6
1.132, -4.451e-6, -1.043e-5, -5.976e-6
1.136, -4.515e-6, -1.059e-5, -6.072e-6
1.140, -4.595e-6, -1.076e-5, -6.161e-6
1.144, -4.672e-6, -1.093e-5, -6.261e-6
1.148, -4.763e-6, -1.111e-5, -6.352e-6
1.152, -4.847e-6, -1.130e-5, -6.455e-6
1.156, -4.931e-6, -1.149e-5, -6.561e-6
1.160, -5.029e-6, -1.169e-5, -6.657e-6
1.164, -5.122e-6, -1.189e-5, -6.768e-6
1.168, -5.230e-6, -1.210e-5, -6.871e-6
1.172, -5.327e-6, -1.231e-5, -6.981e-6
1.176, -5.435e-6, -1.253e-5, -7.095e-6
1.180, -5.543e-6, -1.275e-5, -7.205e-6
1.184, -5.648e-6, -1.298e-5, -7.327e-6
1.188, -5.771e-6, -1.321e-5, -7.444e-6
1.192, -5.882e-6, -1.345e-5, -7.567e-6
1.196, -5.993e-6, -1.369e-5, -7.694e-6
1.200, -6.116e-6, -1.393e-5, -7.818e-6
