Feb. 22, 2024   10:55:43
Square Wave Voltammetry
File: c:\users\fu\desktop\noel\2024_02_22_ml2\2024_02_22_cbz16_03.txt
Data Source:  Experiment
Instrument Model:  CHI650E
Header: 
Note: 

Init E (V) = 0.5
Final E (V) = 1.2
Incr E (V) = 0.004
Amplitude (V) = 0.025
Frequency (Hz) = 15
Quiet Time (sec) = 5
Sensitivity (A/V) = 1e-5

Difference:

Forward:

Reverse:

Potential/V, Diff(i/A), For(i/A), Rev(i/A)

0.504, -1.529e-6, -1.620e-6, -9.095e-8
0.508, -1.521e-6, -1.582e-6, -6.039e-8
0.512, -1.556e-6, -1.625e-6, -6.871e-8
0.516, -1.593e-6, -1.669e-6, -7.611e-8
0.520, -1.636e-6, -1.733e-6, -9.668e-8
0.524, -1.684e-6, -1.792e-6, -1.081e-7
0.528, -1.727e-6, -1.859e-6, -1.314e-7
0.532, -1.780e-6, -1.929e-6, -1.491e-7
0.536, -1.825e-6, -1.992e-6, -1.675e-7
0.540, -1.874e-6, -2.066e-6, -1.914e-7
0.544, -1.924e-6, -2.138e-6, -2.138e-7
0.548, -1.979e-6, -2.215e-6, -2.367e-7
0.552, -2.024e-6, -2.284e-6, -2.599e-7
0.556, -2.071e-6, -2.358e-6, -2.869e-7
0.560, -2.125e-6, -2.432e-6, -3.072e-7
0.564, -2.167e-6, -2.504e-6, -3.365e-7
0.568, -2.218e-6, -2.584e-6, -3.659e-7
0.572, -2.262e-6, -2.654e-6, -3.918e-7
0.576, -2.311e-6, -2.729e-6, -4.173e-7
0.580, -2.364e-6, -2.800e-6, -4.359e-7
0.584, -2.402e-6, -2.876e-6, -4.739e-7
0.588, -2.443e-6, -2.943e-6, -4.992e-7
0.592, -2.483e-6, -3.011e-6, -5.283e-7
0.596, -2.531e-6, -3.084e-6, -5.528e-7
0.600, -2.559e-6, -3.141e-6, -5.818e-7
0.604, -2.599e-6, -3.209e-6, -6.104e-7
0.608, -2.627e-6, -3.266e-6, -6.390e-7
0.612, -2.656e-6, -3.326e-6, -6.706e-7
0.616, -2.695e-6, -3.385e-6, -6.898e-7
0.620, -2.721e-6, -3.440e-6, -7.191e-7
0.624, -2.757e-6, -3.502e-6, -7.446e-7
0.628, -2.777e-6, -3.548e-6, -7.714e-7
0.632, -2.801e-6, -3.602e-6, -8.004e-7
0.636, -2.829e-6, -3.649e-6, -8.203e-7
0.640, -2.853e-6, -3.703e-6, -8.497e-7
0.644, -2.874e-6, -3.748e-6, -8.744e-7
0.648, -2.888e-6, -3.790e-6, -9.027e-7
0.652, -2.908e-6, -3.840e-6, -9.324e-7
0.656, -2.941e-6, -3.887e-6, -9.464e-7
0.660, -2.959e-6, -3.936e-6, -9.768e-7
0.664, -2.979e-6, -3.981e-6, -1.002e-6
0.668, -2.986e-6, -4.021e-6, -1.035e-6
0.672, -3.017e-6, -4.072e-6, -1.056e-6
0.676, -3.033e-6, -4.116e-6, -1.084e-6
0.680, -3.062e-6, -4.171e-6, -1.109e-6
0.684, -3.081e-6, -4.218e-6, -1.137e-6
0.688, -3.094e-6, -4.265e-6, -1.171e-6
0.692, -3.117e-6, -4.315e-6, -1.199e-6
0.696, -3.147e-6, -4.368e-6, -1.221e-6
0.700, -3.170e-6, -4.423e-6, -1.252e-6
0.704, -3.196e-6, -4.480e-6, -1.284e-6
0.708, -3.218e-6, -4.534e-6, -1.316e-6
0.712, -3.236e-6, -4.585e-6, -1.349e-6
0.716, -3.267e-6, -4.647e-6, -1.380e-6
0.720, -3.293e-6, -4.705e-6, -1.412e-6
0.724, -3.321e-6, -4.768e-6, -1.446e-6
0.728, -3.342e-6, -4.823e-6, -1.481e-6
0.732, -3.372e-6, -4.887e-6, -1.515e-6
0.736, -3.395e-6, -4.949e-6, -1.555e-6
0.740, -3.422e-6, -5.015e-6, -1.593e-6
0.744, -3.455e-6, -5.083e-6, -1.628e-6
0.748, -3.478e-6, -5.145e-6, -1.667e-6
0.752, -3.507e-6, -5.216e-6, -1.709e-6
0.756, -3.533e-6, -5.277e-6, -1.745e-6
0.760, -3.557e-6, -5.350e-6, -1.792e-6
0.764, -3.594e-6, -5.420e-6, -1.827e-6
0.768, -3.629e-6, -5.495e-6, -1.866e-6
0.772, -3.653e-6, -5.566e-6, -1.914e-6
0.776, -3.676e-6, -5.632e-6, -1.956e-6
0.780, -3.706e-6, -5.707e-6, -2.001e-6
0.784, -3.734e-6, -5.784e-6, -2.049e-6
0.788, -3.765e-6, -5.864e-6, -2.099e-6
0.792, -3.799e-6, -5.942e-6, -2.143e-6
0.796, -3.828e-6, -6.022e-6, -2.194e-6
0.800, -3.862e-6, -6.102e-6, -2.240e-6
0.804, -3.882e-6, -6.175e-6, -2.293e-6
0.808, -3.911e-6, -6.258e-6, -2.347e-6
0.812, -3.942e-6, -6.340e-6, -2.398e-6
0.816, -3.973e-6, -6.424e-6, -2.451e-6
0.820, -4.002e-6, -6.511e-6, -2.509e-6
0.824, -4.031e-6, -6.594e-6, -2.563e-6
0.828, -4.051e-6, -6.676e-6, -2.625e-6
0.832, -4.084e-6, -6.765e-6, -2.682e-6
0.836, -4.117e-6, -6.854e-6, -2.738e-6
0.840, -4.146e-6, -6.948e-6, -2.802e-6
0.844, -4.179e-6, -7.040e-6, -2.861e-6
0.848, -4.201e-6, -7.127e-6, -2.926e-6
0.852, -4.232e-6, -7.222e-6, -2.990e-6
0.856, -4.271e-6, -7.322e-6, -3.052e-6
0.860, -4.302e-6, -7.424e-6, -3.122e-6
0.864, -4.336e-6, -7.517e-6, -3.181e-6
0.868, -4.361e-6, -7.617e-6, -3.256e-6
0.872, -4.397e-6, -7.719e-6, -3.322e-6
0.876, -4.433e-6, -7.824e-6, -3.391e-6
0.880, -4.473e-6, -7.933e-6, -3.460e-6
0.884, -4.496e-6, -8.033e-6, -3.537e-6
0.888, -4.533e-6, -8.144e-6, -3.611e-6
0.892, -4.578e-6, -8.258e-6, -3.680e-6
0.896, -4.614e-6, -8.367e-6, -3.753e-6
0.900, -4.651e-6, -8.482e-6, -3.830e-6
0.904, -4.684e-6, -8.590e-6, -3.906e-6
0.908, -4.723e-6, -8.708e-6, -3.985e-6
0.912, -4.769e-6, -8.829e-6, -4.060e-6
0.916, -4.810e-6, -8.948e-6, -4.138e-6
0.920, -4.848e-6, -9.069e-6, -4.221e-6
0.924, -4.890e-6, -9.192e-6, -4.302e-6
0.928, -4.925e-6, -9.313e-6, -4.388e-6
0.932, -4.982e-6, -9.447e-6, -4.465e-6
0.936, -5.030e-6, -9.580e-6, -4.550e-6
0.940, -5.072e-6, -9.705e-6, -4.633e-6
0.944, -5.122e-6, -9.840e-6, -4.717e-6
0.948, -5.177e-6, -9.971e-6, -4.794e-6
0.952, -5.226e-6, -1.011e-5, -4.886e-6
0.956, -5.275e-6, -1.025e-5, -4.976e-6
0.960, -5.328e-6, -1.039e-5, -5.063e-6
0.964, -5.394e-6, -1.054e-5, -5.145e-6
0.968, -5.444e-6, -1.068e-5, -5.241e-6
0.972, -5.507e-6, -1.084e-5, -5.334e-6
0.976, -5.566e-6, -1.099e-5, -5.427e-6
0.980, -5.634e-6, -1.115e-5, -5.520e-6
0.984, -5.712e-6, -1.132e-5, -5.607e-6
0.988, -5.788e-6, -1.149e-5, -5.701e-6
0.992, -5.860e-6, -1.167e-5, -5.810e-6
0.996, -5.931e-6, -1.185e-5, -5.914e-6
1.000, -6.027e-6, -1.204e-5, -6.012e-6
1.004, -6.114e-6, -1.223e-5, -6.119e-6
1.008, -6.216e-6, -1.244e-5, -6.221e-6
1.012, -6.313e-6, -1.265e-5, -6.335e-6
1.016, -6.426e-6, -1.288e-5, -6.452e-6
1.020, -6.540e-6, -1.310e-5, -6.562e-6
1.024, -6.665e-6, -1.335e-5, -6.685e-6
1.028, -6.793e-6, -1.360e-5, -6.806e-6
1.032, -6.921e-6, -1.385e-5, -6.934e-6
1.036, -7.060e-6, -1.413e-5, -7.066e-6
1.040, -7.212e-6, -1.440e-5, -7.193e-6
1.044, -7.352e-6, -1.468e-5, -7.331e-6
1.048, -7.498e-6, -1.496e-5, -7.465e-6
1.052, -7.631e-6, -1.524e-5, -7.609e-6
1.056, -7.773e-6, -1.552e-5, -7.744e-6
1.060, -7.903e-6, -1.579e-5, -7.885e-6
1.064, -8.027e-6, -1.605e-5, -8.021e-6
1.068, -8.124e-6, -1.628e-5, -8.159e-6
1.072, -8.226e-6, -1.651e-5, -8.289e-6
1.076, -8.313e-6, -1.673e-5, -8.416e-6
1.080, -8.387e-6, -1.694e-5, -8.548e-6
1.084, -8.459e-6, -1.713e-5, -8.670e-6
1.088, -8.525e-6, -1.733e-5, -8.804e-6
1.092, -8.604e-6, -1.753e-5, -8.926e-6
1.096, -8.686e-6, -1.775e-5, -9.062e-6
1.100, -8.781e-6, -1.797e-5, -9.192e-6
1.104, -8.887e-6, -1.822e-5, -9.330e-6
1.108, -9.001e-6, -1.848e-5, -9.483e-6
1.112, -9.152e-6, -1.878e-5, -9.626e-6
1.116, -9.298e-6, -1.908e-5, -9.787e-6
1.120, -9.475e-6, -1.942e-5, -9.949e-6
1.124, -9.647e-6, -1.977e-5, -1.012e-5
1.128, -9.854e-6, -2.015e-5, -1.030e-5
1.132, -1.006e-5, -2.055e-5, -1.049e-5
1.136, -1.029e-5, -2.097e-5, -1.068e-5
1.140, -1.052e-5, -2.141e-5, -1.088e-5
1.144, -1.079e-5, -2.188e-5, -1.109e-5
1.148, -1.105e-5, -2.236e-5, -1.130e-5
1.152, -1.135e-5, -2.287e-5, -1.153e-5
1.156, -1.165e-5, -2.341e-5, -1.176e-5
1.160, -1.197e-5, -2.398e-5, -1.201e-5
1.164, -1.231e-5, -2.457e-5, -1.226e-5
1.168, -1.267e-5, -2.519e-5, -1.252e-5
1.172, -1.303e-5, -2.584e-5, -1.280e-5
1.176, -1.343e-5, -2.652e-5, -1.308e-5
1.180, -1.383e-5, -2.722e-5, -1.339e-5
1.184, -1.428e-5, -2.797e-5, -1.369e-5
1.188, -1.472e-5, -2.874e-5, -1.402e-5
1.192, -1.520e-5, -2.955e-5, -1.435e-5
1.196, -1.568e-5, -3.038e-5, -1.470e-5
1.200, -1.621e-5, -3.127e-5, -1.506e-5
