Feb. 22, 2024   12:16:25
Square Wave Voltammetry
File: c:\users\fu\desktop\noel\2024_02_22_ml2\2024_02_22_cbz08_16.txt
Data Source:  Experiment
Instrument Model:  CHI650E
Header: 
Note: 

Init E (V) = 0.5
Final E (V) = 1.2
Incr E (V) = 0.004
Amplitude (V) = 0.025
Frequency (Hz) = 15
Quiet Time (sec) = 5
Sensitivity (A/V) = 1e-5

Difference:

Forward:

Reverse:

Potential/V, Diff(i/A), For(i/A), Rev(i/A)

0.504, -1.152e-6, -1.200e-6, -4.818e-8
0.508, -1.127e-6, -1.154e-6, -2.736e-8
0.512, -1.143e-6, -1.171e-6, -2.811e-8
0.516, -1.168e-6, -1.207e-6, -3.849e-8
0.520, -1.196e-6, -1.240e-6, -4.392e-8
0.524, -1.231e-6, -1.283e-6, -5.215e-8
0.528, -1.263e-6, -1.323e-6, -6.047e-8
0.532, -1.296e-6, -1.373e-6, -7.633e-8
0.536, -1.334e-6, -1.420e-6, -8.617e-8
0.540, -1.361e-6, -1.462e-6, -1.017e-7
0.544, -1.392e-6, -1.506e-6, -1.142e-7
0.548, -1.425e-6, -1.554e-6, -1.292e-7
0.552, -1.466e-6, -1.612e-6, -1.464e-7
0.556, -1.501e-6, -1.662e-6, -1.617e-7
0.560, -1.549e-6, -1.721e-6, -1.719e-7
0.564, -1.589e-6, -1.775e-6, -1.865e-7
0.568, -1.622e-6, -1.828e-6, -2.065e-7
0.572, -1.658e-6, -1.886e-6, -2.280e-7
0.576, -1.696e-6, -1.943e-6, -2.476e-7
0.580, -1.729e-6, -1.992e-6, -2.632e-7
0.584, -1.764e-6, -2.052e-6, -2.888e-7
0.588, -1.804e-6, -2.112e-6, -3.081e-7
0.592, -1.846e-6, -2.173e-6, -3.271e-7
0.596, -1.892e-6, -2.232e-6, -3.398e-7
0.600, -1.927e-6, -2.293e-6, -3.661e-7
0.604, -1.963e-6, -2.354e-6, -3.913e-7
0.608, -2.006e-6, -2.416e-6, -4.107e-7
0.612, -2.038e-6, -2.470e-6, -4.323e-7
0.616, -2.066e-6, -2.523e-6, -4.565e-7
0.620, -2.100e-6, -2.587e-6, -4.863e-7
0.624, -2.138e-6, -2.642e-6, -5.037e-7
0.628, -2.172e-6, -2.701e-6, -5.282e-7
0.632, -2.211e-6, -2.757e-6, -5.460e-7
0.636, -2.239e-6, -2.811e-6, -5.715e-7
0.640, -2.275e-6, -2.870e-6, -5.949e-7
0.644, -2.297e-6, -2.916e-6, -6.195e-7
0.648, -2.318e-6, -2.964e-6, -6.462e-7
0.652, -2.339e-6, -3.008e-6, -6.695e-7
0.656, -2.375e-6, -3.068e-6, -6.924e-7
0.660, -2.389e-6, -3.112e-6, -7.227e-7
0.664, -2.426e-6, -3.159e-6, -7.322e-7
0.668, -2.446e-6, -3.206e-6, -7.601e-7
0.672, -2.469e-6, -3.255e-6, -7.867e-7
0.676, -2.486e-6, -3.298e-6, -8.118e-7
0.680, -2.504e-6, -3.338e-6, -8.337e-7
0.684, -2.531e-6, -3.390e-6, -8.593e-7
0.688, -2.556e-6, -3.438e-6, -8.813e-7
0.692, -2.576e-6, -3.478e-6, -9.014e-7
0.696, -2.600e-6, -3.525e-6, -9.258e-7
0.700, -2.617e-6, -3.571e-6, -9.539e-7
0.704, -2.634e-6, -3.615e-6, -9.816e-7
0.708, -2.655e-6, -3.662e-6, -1.006e-6
0.712, -2.672e-6, -3.706e-6, -1.035e-6
0.716, -2.695e-6, -3.757e-6, -1.062e-6
0.720, -2.713e-6, -3.802e-6, -1.088e-6
0.724, -2.759e-6, -3.856e-6, -1.097e-6
0.728, -2.764e-6, -3.904e-6, -1.139e-6
0.732, -2.783e-6, -3.953e-6, -1.170e-6
0.736, -2.801e-6, -3.999e-6, -1.198e-6
0.740, -2.818e-6, -4.052e-6, -1.234e-6
0.744, -2.844e-6, -4.109e-6, -1.265e-6
0.748, -2.873e-6, -4.163e-6, -1.290e-6
0.752, -2.900e-6, -4.219e-6, -1.320e-6
0.756, -2.927e-6, -4.278e-6, -1.350e-6
0.760, -2.941e-6, -4.328e-6, -1.388e-6
0.764, -2.963e-6, -4.390e-6, -1.427e-6
0.768, -2.975e-6, -4.438e-6, -1.463e-6
0.772, -3.007e-6, -4.502e-6, -1.494e-6
0.776, -3.035e-6, -4.562e-6, -1.528e-6
0.780, -3.060e-6, -4.623e-6, -1.563e-6
0.784, -3.089e-6, -4.687e-6, -1.598e-6
0.788, -3.114e-6, -4.750e-6, -1.636e-6
0.792, -3.141e-6, -4.815e-6, -1.673e-6
0.796, -3.158e-6, -4.875e-6, -1.717e-6
0.800, -3.169e-6, -4.931e-6, -1.763e-6
0.804, -3.197e-6, -5.000e-6, -1.803e-6
0.808, -3.228e-6, -5.069e-6, -1.841e-6
0.812, -3.247e-6, -5.128e-6, -1.881e-6
0.816, -3.277e-6, -5.200e-6, -1.923e-6
0.820, -3.292e-6, -5.267e-6, -1.975e-6
0.824, -3.315e-6, -5.332e-6, -2.017e-6
0.828, -3.334e-6, -5.398e-6, -2.064e-6
0.832, -3.344e-6, -5.462e-6, -2.118e-6
0.836, -3.373e-6, -5.542e-6, -2.168e-6
0.840, -3.393e-6, -5.607e-6, -2.214e-6
0.844, -3.423e-6, -5.680e-6, -2.257e-6
0.848, -3.443e-6, -5.755e-6, -2.312e-6
0.852, -3.460e-6, -5.827e-6, -2.366e-6
0.856, -3.487e-6, -5.905e-6, -2.418e-6
0.860, -3.494e-6, -5.973e-6, -2.479e-6
0.864, -3.522e-6, -6.050e-6, -2.528e-6
0.868, -3.545e-6, -6.129e-6, -2.584e-6
0.872, -3.571e-6, -6.208e-6, -2.637e-6
0.876, -3.588e-6, -6.286e-6, -2.699e-6
0.880, -3.612e-6, -6.370e-6, -2.758e-6
0.884, -3.633e-6, -6.451e-6, -2.817e-6
0.888, -3.655e-6, -6.534e-6, -2.879e-6
0.892, -3.673e-6, -6.615e-6, -2.943e-6
0.896, -3.697e-6, -6.702e-6, -3.004e-6
0.900, -3.725e-6, -6.789e-6, -3.065e-6
0.904, -3.751e-6, -6.879e-6, -3.127e-6
0.908, -3.774e-6, -6.969e-6, -3.195e-6
0.912, -3.806e-6, -7.062e-6, -3.256e-6
0.916, -3.816e-6, -7.148e-6, -3.332e-6
0.920, -3.846e-6, -7.240e-6, -3.395e-6
0.924, -3.878e-6, -7.341e-6, -3.463e-6
0.928, -3.905e-6, -7.433e-6, -3.528e-6
0.932, -3.935e-6, -7.530e-6, -3.595e-6
0.936, -3.970e-6, -7.638e-6, -3.667e-6
0.940, -4.000e-6, -7.734e-6, -3.734e-6
0.944, -4.023e-6, -7.832e-6, -3.809e-6
0.948, -4.049e-6, -7.929e-6, -3.880e-6
0.952, -4.089e-6, -8.040e-6, -3.951e-6
0.956, -4.114e-6, -8.141e-6, -4.028e-6
0.960, -4.157e-6, -8.252e-6, -4.095e-6
0.964, -4.188e-6, -8.358e-6, -4.170e-6
0.968, -4.221e-6, -8.465e-6, -4.244e-6
0.972, -4.246e-6, -8.574e-6, -4.328e-6
0.976, -4.288e-6, -8.689e-6, -4.401e-6
0.980, -4.326e-6, -8.804e-6, -4.478e-6
0.984, -4.371e-6, -8.925e-6, -4.554e-6
0.988, -4.417e-6, -9.043e-6, -4.626e-6
0.992, -4.458e-6, -9.162e-6, -4.704e-6
0.996, -4.502e-6, -9.288e-6, -4.786e-6
1.000, -4.544e-6, -9.408e-6, -4.865e-6
1.004, -4.587e-6, -9.533e-6, -4.946e-6
1.008, -4.630e-6, -9.672e-6, -5.042e-6
1.012, -4.690e-6, -9.803e-6, -5.113e-6
1.016, -4.745e-6, -9.937e-6, -5.192e-6
1.020, -4.800e-6, -1.007e-5, -5.270e-6
1.024, -4.866e-6, -1.022e-5, -5.355e-6
1.028, -4.919e-6, -1.037e-5, -5.447e-6
1.032, -4.983e-6, -1.052e-5, -5.533e-6
1.036, -5.046e-6, -1.067e-5, -5.623e-6
1.040, -5.122e-6, -1.083e-5, -5.712e-6
1.044, -5.191e-6, -1.100e-5, -5.809e-6
1.048, -5.272e-6, -1.117e-5, -5.900e-6
1.052, -5.353e-6, -1.135e-5, -5.993e-6
1.056, -5.444e-6, -1.154e-5, -6.091e-6
1.060, -5.528e-6, -1.172e-5, -6.196e-6
1.064, -5.620e-6, -1.191e-5, -6.292e-6
1.068, -5.711e-6, -1.211e-5, -6.402e-6
1.072, -5.805e-6, -1.231e-5, -6.504e-6
1.076, -5.895e-6, -1.252e-5, -6.622e-6
1.080, -6.000e-6, -1.272e-5, -6.719e-6
1.084, -6.089e-6, -1.292e-5, -6.830e-6
1.088, -6.188e-6, -1.312e-5, -6.934e-6
1.092, -6.282e-6, -1.332e-5, -7.040e-6
1.096, -6.362e-6, -1.351e-5, -7.151e-6
1.100, -6.432e-6, -1.369e-5, -7.262e-6
1.104, -6.515e-6, -1.388e-5, -7.362e-6
1.108, -6.577e-6, -1.405e-5, -7.470e-6
1.112, -6.644e-6, -1.422e-5, -7.573e-6
1.116, -6.720e-6, -1.440e-5, -7.679e-6
1.120, -6.791e-6, -1.458e-5, -7.790e-6
1.124, -6.878e-6, -1.477e-5, -7.897e-6
1.128, -6.963e-6, -1.497e-5, -8.009e-6
1.132, -7.061e-6, -1.519e-5, -8.127e-6
1.136, -7.162e-6, -1.542e-5, -8.254e-6
1.140, -7.275e-6, -1.565e-5, -8.380e-6
1.144, -7.403e-6, -1.591e-5, -8.509e-6
1.148, -7.541e-6, -1.619e-5, -8.646e-6
1.152, -7.686e-6, -1.647e-5, -8.789e-6
1.156, -7.849e-6, -1.678e-5, -8.932e-6
1.160, -8.021e-6, -1.710e-5, -9.082e-6
1.164, -8.194e-6, -1.743e-5, -9.237e-6
1.168, -8.392e-6, -1.779e-5, -9.395e-6
1.172, -8.583e-6, -1.815e-5, -9.567e-6
1.176, -8.795e-6, -1.853e-5, -9.738e-6
1.180, -9.020e-6, -1.893e-5, -9.914e-6
1.184, -9.257e-6, -1.936e-5, -1.010e-5
1.188, -9.511e-6, -1.980e-5, -1.029e-5
1.192, -9.783e-6, -2.027e-5, -1.049e-5
1.196, -1.005e-5, -2.075e-5, -1.070e-5
1.200, -1.036e-5, -2.127e-5, -1.091e-5
