Feb. 22, 2024   16:10:08
Square Wave Voltammetry
File: c:\users\fu\desktop\noel\2024_02_22_ml2\2024_02_22_cbz00_32.txt
Data Source:  Experiment
Instrument Model:  CHI650E
Header: 
Note: 

Init E (V) = 0.5
Final E (V) = 1.2
Incr E (V) = 0.004
Amplitude (V) = 0.025
Frequency (Hz) = 15
Quiet Time (sec) = 5
Sensitivity (A/V) = 1e-5

Difference:

Forward:

Reverse:

Potential/V, Diff(i/A), For(i/A), Rev(i/A)

0.504, -8.409e-7, -1.074e-6, -2.332e-7
0.508, -8.238e-7, -1.065e-6, -2.416e-7
0.512, -8.328e-7, -1.086e-6, -2.531e-7
0.516, -8.506e-7, -1.117e-6, -2.668e-7
0.520, -8.655e-7, -1.142e-6, -2.768e-7
0.524, -8.701e-7, -1.169e-6, -2.987e-7
0.528, -8.887e-7, -1.206e-6, -3.173e-7
0.532, -9.037e-7, -1.242e-6, -3.384e-7
0.536, -9.145e-7, -1.268e-6, -3.531e-7
0.540, -9.367e-7, -1.303e-6, -3.663e-7
0.544, -9.444e-7, -1.340e-6, -3.952e-7
0.548, -9.550e-7, -1.373e-6, -4.183e-7
0.552, -9.770e-7, -1.408e-6, -4.310e-7
0.556, -9.866e-7, -1.440e-6, -4.532e-7
0.560, -9.932e-7, -1.473e-6, -4.794e-7
0.564, -1.017e-6, -1.514e-6, -4.968e-7
0.568, -1.034e-6, -1.552e-6, -5.181e-7
0.572, -1.048e-6, -1.586e-6, -5.375e-7
0.576, -1.056e-6, -1.618e-6, -5.622e-7
0.580, -1.075e-6, -1.662e-6, -5.871e-7
0.584, -1.092e-6, -1.696e-6, -6.044e-7
0.588, -1.098e-6, -1.728e-6, -6.302e-7
0.592, -1.119e-6, -1.772e-6, -6.533e-7
0.596, -1.140e-6, -1.818e-6, -6.781e-7
0.600, -1.153e-6, -1.851e-6, -6.985e-7
0.604, -1.168e-6, -1.884e-6, -7.160e-7
0.608, -1.184e-6, -1.930e-6, -7.466e-7
0.612, -1.191e-6, -1.968e-6, -7.764e-7
0.616, -1.214e-6, -2.010e-6, -7.963e-7
0.620, -1.236e-6, -2.050e-6, -8.140e-7
0.624, -1.246e-6, -2.090e-6, -8.443e-7
0.628, -1.260e-6, -2.131e-6, -8.705e-7
0.632, -1.281e-6, -2.173e-6, -8.927e-7
0.636, -1.300e-6, -2.214e-6, -9.139e-7
0.640, -1.324e-6, -2.260e-6, -9.369e-7
0.644, -1.338e-6, -2.304e-6, -9.654e-7
0.648, -1.351e-6, -2.344e-6, -9.930e-7
0.652, -1.377e-6, -2.392e-6, -1.015e-6
0.656, -1.382e-6, -2.430e-6, -1.048e-6
0.660, -1.407e-6, -2.473e-6, -1.066e-6
0.664, -1.434e-6, -2.522e-6, -1.089e-6
0.668, -1.441e-6, -2.566e-6, -1.125e-6
0.672, -1.468e-6, -2.616e-6, -1.148e-6
0.676, -1.494e-6, -2.667e-6, -1.173e-6
0.680, -1.510e-6, -2.710e-6, -1.200e-6
0.684, -1.530e-6, -2.754e-6, -1.224e-6
0.688, -1.550e-6, -2.804e-6, -1.254e-6
0.692, -1.569e-6, -2.857e-6, -1.287e-6
0.696, -1.592e-6, -2.905e-6, -1.313e-6
0.700, -1.609e-6, -2.951e-6, -1.342e-6
0.704, -1.634e-6, -3.002e-6, -1.368e-6
0.708, -1.651e-6, -3.053e-6, -1.402e-6
0.712, -1.681e-6, -3.111e-6, -1.430e-6
0.716, -1.702e-6, -3.159e-6, -1.457e-6
0.720, -1.720e-6, -3.211e-6, -1.491e-6
0.724, -1.745e-6, -3.265e-6, -1.520e-6
0.728, -1.759e-6, -3.316e-6, -1.556e-6
0.732, -1.792e-6, -3.378e-6, -1.586e-6
0.736, -1.814e-6, -3.430e-6, -1.616e-6
0.740, -1.831e-6, -3.484e-6, -1.653e-6
0.744, -1.856e-6, -3.542e-6, -1.686e-6
0.748, -1.895e-6, -3.607e-6, -1.711e-6
0.752, -1.902e-6, -3.655e-6, -1.754e-6
0.756, -1.922e-6, -3.713e-6, -1.792e-6
0.760, -1.950e-6, -3.774e-6, -1.824e-6
0.764, -1.977e-6, -3.833e-6, -1.856e-6
0.768, -1.996e-6, -3.887e-6, -1.892e-6
0.772, -2.018e-6, -3.953e-6, -1.935e-6
0.776, -2.053e-6, -4.020e-6, -1.968e-6
0.780, -2.065e-6, -4.077e-6, -2.011e-6
0.784, -2.084e-6, -4.135e-6, -2.052e-6
0.788, -2.114e-6, -4.208e-6, -2.095e-6
0.792, -2.137e-6, -4.271e-6, -2.134e-6
0.796, -2.152e-6, -4.329e-6, -2.177e-6
0.800, -2.177e-6, -4.397e-6, -2.220e-6
0.804, -2.212e-6, -4.471e-6, -2.259e-6
0.808, -2.230e-6, -4.535e-6, -2.305e-6
0.812, -2.249e-6, -4.599e-6, -2.350e-6
0.816, -2.276e-6, -4.675e-6, -2.399e-6
0.820, -2.287e-6, -4.743e-6, -2.456e-6
0.824, -2.316e-6, -4.807e-6, -2.492e-6
0.828, -2.339e-6, -4.880e-6, -2.541e-6
0.832, -2.351e-6, -4.955e-6, -2.604e-6
0.836, -2.380e-6, -5.031e-6, -2.650e-6
0.840, -2.412e-6, -5.111e-6, -2.698e-6
0.844, -2.427e-6, -5.180e-6, -2.753e-6
0.848, -2.455e-6, -5.255e-6, -2.800e-6
0.852, -2.479e-6, -5.339e-6, -2.860e-6
0.856, -2.495e-6, -5.417e-6, -2.922e-6
0.860, -2.522e-6, -5.492e-6, -2.971e-6
0.864, -2.549e-6, -5.576e-6, -3.027e-6
0.868, -2.567e-6, -5.653e-6, -3.086e-6
0.872, -2.594e-6, -5.737e-6, -3.144e-6
0.876, -2.619e-6, -5.823e-6, -3.204e-6
0.880, -2.648e-6, -5.911e-6, -3.262e-6
0.884, -2.679e-6, -6.001e-6, -3.322e-6
0.888, -2.701e-6, -6.084e-6, -3.382e-6
0.892, -2.723e-6, -6.170e-6, -3.447e-6
0.896, -2.761e-6, -6.269e-6, -3.508e-6
0.900, -2.776e-6, -6.358e-6, -3.582e-6
0.904, -2.804e-6, -6.448e-6, -3.643e-6
0.908, -2.838e-6, -6.542e-6, -3.704e-6
0.912, -2.862e-6, -6.632e-6, -3.770e-6
0.916, -2.901e-6, -6.734e-6, -3.834e-6
0.920, -2.921e-6, -6.829e-6, -3.908e-6
0.924, -2.952e-6, -6.925e-6, -3.973e-6
0.928, -2.995e-6, -7.035e-6, -4.040e-6
0.932, -3.024e-6, -7.134e-6, -4.111e-6
0.936, -3.057e-6, -7.230e-6, -4.173e-6
0.940, -3.087e-6, -7.333e-6, -4.246e-6
0.944, -3.115e-6, -7.438e-6, -4.323e-6
0.948, -3.157e-6, -7.545e-6, -4.388e-6
0.952, -3.185e-6, -7.651e-6, -4.466e-6
0.956, -3.219e-6, -7.754e-6, -4.535e-6
0.960, -3.262e-6, -7.864e-6, -4.602e-6
0.964, -3.298e-6, -7.979e-6, -4.681e-6
0.968, -3.328e-6, -8.081e-6, -4.753e-6
0.972, -3.375e-6, -8.198e-6, -4.823e-6
0.976, -3.409e-6, -8.309e-6, -4.900e-6
0.980, -3.441e-6, -8.420e-6, -4.979e-6
0.984, -3.493e-6, -8.542e-6, -5.049e-6
0.988, -3.529e-6, -8.653e-6, -5.124e-6
0.992, -3.573e-6, -8.776e-6, -5.203e-6
0.996, -3.596e-6, -8.883e-6, -5.287e-6
1.000, -3.662e-6, -9.018e-6, -5.356e-6
1.004, -3.692e-6, -9.128e-6, -5.436e-6
1.008, -3.731e-6, -9.249e-6, -5.518e-6
1.012, -3.779e-6, -9.377e-6, -5.598e-6
1.016, -3.828e-6, -9.505e-6, -5.677e-6
1.020, -3.864e-6, -9.626e-6, -5.762e-6
1.024, -3.921e-6, -9.764e-6, -5.843e-6
1.028, -3.975e-6, -9.892e-6, -5.917e-6
1.032, -4.020e-6, -1.002e-5, -6.004e-6
1.036, -4.059e-6, -1.015e-5, -6.095e-6
1.040, -4.123e-6, -1.030e-5, -6.173e-6
1.044, -4.181e-6, -1.044e-5, -6.256e-6
1.048, -4.231e-6, -1.058e-5, -6.350e-6
1.052, -4.288e-6, -1.073e-5, -6.442e-6
1.056, -4.362e-6, -1.088e-5, -6.520e-6
1.060, -4.419e-6, -1.104e-5, -6.617e-6
1.064, -4.476e-6, -1.119e-5, -6.717e-6
1.068, -4.552e-6, -1.135e-5, -6.802e-6
1.072, -4.623e-6, -1.152e-5, -6.897e-6
1.076, -4.698e-6, -1.170e-5, -6.998e-6
1.080, -4.776e-6, -1.187e-5, -7.097e-6
1.084, -4.857e-6, -1.206e-5, -7.199e-6
1.088, -4.946e-6, -1.225e-5, -7.305e-6
1.092, -5.029e-6, -1.245e-5, -7.416e-6
1.096, -5.127e-6, -1.264e-5, -7.517e-6
1.100, -5.227e-6, -1.286e-5, -7.634e-6
1.104, -5.337e-6, -1.308e-5, -7.746e-6
1.108, -5.439e-6, -1.330e-5, -7.861e-6
1.112, -5.553e-6, -1.354e-5, -7.982e-6
1.116, -5.672e-6, -1.378e-5, -8.109e-6
1.120, -5.801e-6, -1.403e-5, -8.229e-6
1.124, -5.925e-6, -1.429e-5, -8.361e-6
1.128, -6.070e-6, -1.456e-5, -8.492e-6
1.132, -6.223e-6, -1.485e-5, -8.626e-6
1.136, -6.367e-6, -1.513e-5, -8.767e-6
1.140, -6.518e-6, -1.544e-5, -8.920e-6
1.144, -6.693e-6, -1.576e-5, -9.065e-6
1.148, -6.862e-6, -1.608e-5, -9.214e-6
1.152, -7.038e-6, -1.641e-5, -9.377e-6
1.156, -7.222e-6, -1.676e-5, -9.540e-6
1.160, -7.426e-6, -1.713e-5, -9.704e-6
1.164, -7.614e-6, -1.749e-5, -9.881e-6
1.168, -7.816e-6, -1.788e-5, -1.007e-5
1.172, -8.022e-6, -1.827e-5, -1.025e-5
1.176, -8.251e-6, -1.868e-5, -1.043e-5
1.180, -8.448e-6, -1.909e-5, -1.064e-5
1.184, -8.684e-6, -1.952e-5, -1.084e-5
1.188, -8.913e-6, -1.996e-5, -1.105e-5
1.192, -9.142e-6, -2.040e-5, -1.126e-5
1.196, -9.356e-6, -2.085e-5, -1.149e-5
1.200, -9.591e-6, -2.131e-5, -1.172e-5
