Feb. 22, 2024   15:28:48
Square Wave Voltammetry
File: c:\users\fu\desktop\noel\2024_02_22_ml2\2024_02_22_cbz16_29.txt
Data Source:  Experiment
Instrument Model:  CHI650E
Header: 
Note: 

Init E (V) = 0.5
Final E (V) = 1.2
Incr E (V) = 0.004
Amplitude (V) = 0.025
Frequency (Hz) = 15
Quiet Time (sec) = 5
Sensitivity (A/V) = 1e-5

Difference:

Forward:

Reverse:

Potential/V, Diff(i/A), For(i/A), Rev(i/A)

0.504, -7.038e-7, -7.920e-7, -8.824e-8
0.508, -6.946e-7, -7.727e-7, -7.804e-8
0.512, -7.079e-7, -7.825e-7, -7.457e-8
0.516, -7.126e-7, -7.975e-7, -8.499e-8
0.520, -7.299e-7, -8.174e-7, -8.753e-8
0.524, -7.393e-7, -8.435e-7, -1.041e-7
0.528, -7.512e-7, -8.663e-7, -1.152e-7
0.532, -7.707e-7, -8.887e-7, -1.180e-7
0.536, -7.872e-7, -9.148e-7, -1.277e-7
0.540, -7.963e-7, -9.386e-7, -1.422e-7
0.544, -8.106e-7, -9.637e-7, -1.531e-7
0.548, -8.278e-7, -9.908e-7, -1.630e-7
0.552, -8.412e-7, -1.016e-6, -1.748e-7
0.556, -8.464e-7, -1.032e-6, -1.861e-7
0.560, -8.709e-7, -1.067e-6, -1.962e-7
0.564, -8.785e-7, -1.092e-6, -2.131e-7
0.568, -8.925e-7, -1.118e-6, -2.251e-7
0.572, -9.052e-7, -1.140e-6, -2.347e-7
0.576, -9.226e-7, -1.166e-6, -2.436e-7
0.580, -9.328e-7, -1.191e-6, -2.582e-7
0.584, -9.466e-7, -1.220e-6, -2.736e-7
0.588, -9.642e-7, -1.247e-6, -2.830e-7
0.592, -9.789e-7, -1.274e-6, -2.953e-7
0.596, -9.849e-7, -1.295e-6, -3.097e-7
0.600, -9.943e-7, -1.320e-6, -3.261e-7
0.604, -1.010e-6, -1.351e-6, -3.412e-7
0.608, -1.018e-6, -1.374e-6, -3.563e-7
0.612, -1.034e-6, -1.401e-6, -3.675e-7
0.616, -1.047e-6, -1.425e-6, -3.781e-7
0.620, -1.054e-6, -1.449e-6, -3.948e-7
0.624, -1.069e-6, -1.479e-6, -4.100e-7
0.628, -1.086e-6, -1.508e-6, -4.223e-7
0.632, -1.093e-6, -1.531e-6, -4.380e-7
0.636, -1.099e-6, -1.552e-6, -4.531e-7
0.640, -1.109e-6, -1.585e-6, -4.760e-7
0.644, -1.125e-6, -1.611e-6, -4.861e-7
0.648, -1.144e-6, -1.635e-6, -4.913e-7
0.652, -1.150e-6, -1.659e-6, -5.093e-7
0.656, -1.158e-6, -1.687e-6, -5.294e-7
0.660, -1.170e-6, -1.714e-6, -5.439e-7
0.664, -1.189e-6, -1.747e-6, -5.573e-7
0.668, -1.194e-6, -1.768e-6, -5.738e-7
0.672, -1.205e-6, -1.794e-6, -5.892e-7
0.676, -1.215e-6, -1.824e-6, -6.088e-7
0.680, -1.227e-6, -1.854e-6, -6.271e-7
0.684, -1.241e-6, -1.883e-6, -6.422e-7
0.688, -1.254e-6, -1.913e-6, -6.597e-7
0.692, -1.267e-6, -1.942e-6, -6.750e-7
0.696, -1.280e-6, -1.972e-6, -6.919e-7
0.700, -1.288e-6, -2.001e-6, -7.132e-7
0.704, -1.307e-6, -2.035e-6, -7.277e-7
0.708, -1.322e-6, -2.072e-6, -7.498e-7
0.712, -1.335e-6, -2.102e-6, -7.672e-7
0.716, -1.346e-6, -2.131e-6, -7.856e-7
0.720, -1.358e-6, -2.167e-6, -8.083e-7
0.724, -1.369e-6, -2.203e-6, -8.339e-7
0.728, -1.388e-6, -2.237e-6, -8.489e-7
0.732, -1.406e-6, -2.272e-6, -8.661e-7
0.736, -1.415e-6, -2.303e-6, -8.889e-7
0.740, -1.433e-6, -2.345e-6, -9.118e-7
0.744, -1.456e-6, -2.386e-6, -9.295e-7
0.748, -1.459e-6, -2.415e-6, -9.566e-7
0.752, -1.481e-6, -2.458e-6, -9.776e-7
0.756, -1.497e-6, -2.501e-6, -1.004e-6
0.760, -1.509e-6, -2.540e-6, -1.031e-6
0.764, -1.530e-6, -2.577e-6, -1.047e-6
0.768, -1.548e-6, -2.619e-6, -1.071e-6
0.772, -1.561e-6, -2.664e-6, -1.103e-6
0.776, -1.579e-6, -2.704e-6, -1.125e-6
0.780, -1.600e-6, -2.750e-6, -1.150e-6
0.784, -1.616e-6, -2.792e-6, -1.176e-6
0.788, -1.631e-6, -2.835e-6, -1.205e-6
0.792, -1.650e-6, -2.885e-6, -1.234e-6
0.796, -1.664e-6, -2.926e-6, -1.261e-6
0.800, -1.687e-6, -2.973e-6, -1.285e-6
0.804, -1.706e-6, -3.022e-6, -1.316e-6
0.808, -1.725e-6, -3.074e-6, -1.349e-6
0.812, -1.746e-6, -3.123e-6, -1.377e-6
0.816, -1.759e-6, -3.166e-6, -1.407e-6
0.820, -1.779e-6, -3.219e-6, -1.441e-6
0.824, -1.795e-6, -3.271e-6, -1.476e-6
0.828, -1.814e-6, -3.322e-6, -1.508e-6
0.832, -1.832e-6, -3.374e-6, -1.542e-6
0.836, -1.851e-6, -3.424e-6, -1.573e-6
0.840, -1.874e-6, -3.484e-6, -1.610e-6
0.844, -1.896e-6, -3.539e-6, -1.643e-6
0.848, -1.912e-6, -3.592e-6, -1.680e-6
0.852, -1.933e-6, -3.647e-6, -1.714e-6
0.856, -1.955e-6, -3.707e-6, -1.752e-6
0.860, -1.968e-6, -3.765e-6, -1.798e-6
0.864, -1.993e-6, -3.822e-6, -1.828e-6
0.868, -2.012e-6, -3.881e-6, -1.868e-6
0.872, -2.035e-6, -3.945e-6, -1.910e-6
0.876, -2.058e-6, -4.008e-6, -1.949e-6
0.880, -2.079e-6, -4.068e-6, -1.989e-6
0.884, -2.098e-6, -4.129e-6, -2.031e-6
0.888, -2.118e-6, -4.193e-6, -2.076e-6
0.892, -2.144e-6, -4.261e-6, -2.117e-6
0.896, -2.164e-6, -4.328e-6, -2.163e-6
0.900, -2.185e-6, -4.391e-6, -2.206e-6
0.904, -2.210e-6, -4.458e-6, -2.248e-6
0.908, -2.230e-6, -4.529e-6, -2.299e-6
0.912, -2.260e-6, -4.601e-6, -2.341e-6
0.916, -2.288e-6, -4.676e-6, -2.388e-6
0.920, -2.305e-6, -4.742e-6, -2.436e-6
0.924, -2.331e-6, -4.813e-6, -2.482e-6
0.928, -2.357e-6, -4.889e-6, -2.531e-6
0.932, -2.379e-6, -4.964e-6, -2.585e-6
0.936, -2.409e-6, -5.042e-6, -2.634e-6
0.940, -2.434e-6, -5.118e-6, -2.684e-6
0.944, -2.464e-6, -5.197e-6, -2.732e-6
0.948, -2.492e-6, -5.273e-6, -2.781e-6
0.952, -2.516e-6, -5.354e-6, -2.838e-6
0.956, -2.544e-6, -5.435e-6, -2.891e-6
0.960, -2.579e-6, -5.524e-6, -2.945e-6
0.964, -2.610e-6, -5.609e-6, -3.000e-6
0.968, -2.648e-6, -5.700e-6, -3.053e-6
0.972, -2.676e-6, -5.786e-6, -3.110e-6
0.976, -2.718e-6, -5.883e-6, -3.165e-6
0.980, -2.752e-6, -5.973e-6, -3.221e-6
0.984, -2.791e-6, -6.066e-6, -3.275e-6
0.988, -2.825e-6, -6.163e-6, -3.338e-6
0.992, -2.870e-6, -6.265e-6, -3.395e-6
0.996, -2.914e-6, -6.371e-6, -3.457e-6
1.000, -2.954e-6, -6.473e-6, -3.519e-6
1.004, -3.005e-6, -6.589e-6, -3.584e-6
1.008, -3.055e-6, -6.705e-6, -3.650e-6
1.012, -3.106e-6, -6.822e-6, -3.716e-6
1.016, -3.162e-6, -6.944e-6, -3.782e-6
1.020, -3.212e-6, -7.065e-6, -3.853e-6
1.024, -3.275e-6, -7.198e-6, -3.923e-6
1.028, -3.335e-6, -7.328e-6, -3.993e-6
1.032, -3.400e-6, -7.463e-6, -4.063e-6
1.036, -3.466e-6, -7.604e-6, -4.138e-6
1.040, -3.530e-6, -7.739e-6, -4.209e-6
1.044, -3.586e-6, -7.878e-6, -4.291e-6
1.048, -3.652e-6, -8.020e-6, -4.368e-6
1.052, -3.710e-6, -8.159e-6, -4.449e-6
1.056, -3.765e-6, -8.292e-6, -4.527e-6
1.060, -3.826e-6, -8.429e-6, -4.603e-6
1.064, -3.875e-6, -8.559e-6, -4.683e-6
1.068, -3.920e-6, -8.680e-6, -4.760e-6
1.072, -3.964e-6, -8.797e-6, -4.833e-6
1.076, -4.004e-6, -8.917e-6, -4.913e-6
1.080, -4.045e-6, -9.036e-6, -4.991e-6
1.084, -4.080e-6, -9.149e-6, -5.069e-6
1.088, -4.124e-6, -9.271e-6, -5.146e-6
1.092, -4.164e-6, -9.395e-6, -5.231e-6
1.096, -4.210e-6, -9.520e-6, -5.310e-6
1.100, -4.257e-6, -9.652e-6, -5.395e-6
1.104, -4.314e-6, -9.789e-6, -5.474e-6
1.108, -4.374e-6, -9.932e-6, -5.558e-6
1.112, -4.433e-6, -1.008e-5, -5.648e-6
1.116, -4.501e-6, -1.024e-5, -5.738e-6
1.120, -4.571e-6, -1.040e-5, -5.830e-6
1.124, -4.646e-6, -1.057e-5, -5.925e-6
1.128, -4.727e-6, -1.075e-5, -6.019e-6
1.132, -4.800e-6, -1.092e-5, -6.116e-6
1.136, -4.887e-6, -1.110e-5, -6.215e-6
1.140, -4.975e-6, -1.130e-5, -6.324e-6
1.144, -5.063e-6, -1.149e-5, -6.432e-6
1.148, -5.161e-6, -1.170e-5, -6.537e-6
1.152, -5.268e-6, -1.191e-5, -6.642e-6
1.156, -5.369e-6, -1.212e-5, -6.754e-6
1.160, -5.480e-6, -1.235e-5, -6.872e-6
1.164, -5.593e-6, -1.258e-5, -6.988e-6
1.168, -5.716e-6, -1.283e-5, -7.111e-6
1.172, -5.840e-6, -1.307e-5, -7.230e-6
1.176, -5.960e-6, -1.332e-5, -7.357e-6
1.180, -6.086e-6, -1.357e-5, -7.489e-6
1.184, -6.224e-6, -1.385e-5, -7.625e-6
1.188, -6.357e-6, -1.412e-5, -7.766e-6
1.192, -6.495e-6, -1.440e-5, -7.906e-6
1.196, -6.639e-6, -1.468e-5, -8.045e-6
1.200, -6.784e-6, -1.498e-5, -8.193e-6
