Feb. 22, 2024   14:24:47
Square Wave Voltammetry
File: c:\users\fu\desktop\noel\2024_02_22_ml2\2024_02_22_cbz08_25.txt
Data Source:  Experiment
Instrument Model:  CHI650E
Header: 
Note: 

Init E (V) = 0.5
Final E (V) = 1.2
Incr E (V) = 0.004
Amplitude (V) = 0.025
Frequency (Hz) = 15
Quiet Time (sec) = 5
Sensitivity (A/V) = 1e-5

Difference:

Forward:

Reverse:

Potential/V, Diff(i/A), For(i/A), Rev(i/A)

0.504, -4.689e-6, -4.336e-6, 3.525e-7
0.508, -4.657e-6, -4.297e-6, 3.600e-7
0.512, -4.703e-6, -4.359e-6, 3.435e-7
0.516, -4.745e-6, -4.434e-6, 3.109e-7
0.520, -4.797e-6, -4.522e-6, 2.745e-7
0.524, -4.848e-6, -4.613e-6, 2.344e-7
0.528, -4.906e-6, -4.712e-6, 1.943e-7
0.532, -4.955e-6, -4.809e-6, 1.462e-7
0.536, -5.012e-6, -4.917e-6, 9.569e-8
0.540, -5.074e-6, -5.022e-6, 5.214e-8
0.544, -5.134e-6, -5.135e-6, -1.038e-9
0.548, -5.205e-6, -5.247e-6, -4.265e-8
0.552, -5.252e-6, -5.359e-6, -1.069e-7
0.556, -5.310e-6, -5.477e-6, -1.669e-7
0.560, -5.381e-6, -5.599e-6, -2.178e-7
0.564, -5.452e-6, -5.733e-6, -2.805e-7
0.568, -5.520e-6, -5.862e-6, -3.422e-7
0.572, -5.593e-6, -6.002e-6, -4.097e-7
0.576, -5.673e-6, -6.141e-6, -4.679e-7
0.580, -5.755e-6, -6.287e-6, -5.322e-7
0.584, -5.838e-6, -6.439e-6, -6.011e-7
0.588, -5.912e-6, -6.590e-6, -6.775e-7
0.592, -6.002e-6, -6.747e-6, -7.453e-7
0.596, -6.095e-6, -6.912e-6, -8.167e-7
0.600, -6.183e-6, -7.079e-6, -8.966e-7
0.604, -6.282e-6, -7.256e-6, -9.736e-7
0.608, -6.367e-6, -7.430e-6, -1.063e-6
0.612, -6.477e-6, -7.614e-6, -1.137e-6
0.616, -6.597e-6, -7.802e-6, -1.205e-6
0.620, -6.681e-6, -7.984e-6, -1.303e-6
0.624, -6.780e-6, -8.172e-6, -1.392e-6
0.628, -6.888e-6, -8.371e-6, -1.484e-6
0.632, -6.991e-6, -8.565e-6, -1.574e-6
0.636, -7.100e-6, -8.762e-6, -1.662e-6
0.640, -7.212e-6, -8.966e-6, -1.754e-6
0.644, -7.319e-6, -9.172e-6, -1.853e-6
0.648, -7.427e-6, -9.376e-6, -1.949e-6
0.652, -7.540e-6, -9.587e-6, -2.047e-6
0.656, -7.644e-6, -9.794e-6, -2.150e-6
0.660, -7.753e-6, -1.000e-5, -2.247e-6
0.664, -7.854e-6, -1.021e-5, -2.360e-6
0.668, -7.962e-6, -1.043e-5, -2.464e-6
0.672, -8.066e-6, -1.064e-5, -2.570e-6
0.676, -8.178e-6, -1.085e-5, -2.676e-6
0.680, -8.270e-6, -1.106e-5, -2.795e-6
0.684, -8.374e-6, -1.128e-5, -2.906e-6
0.688, -8.465e-6, -1.149e-5, -3.022e-6
0.692, -8.560e-6, -1.170e-5, -3.142e-6
0.696, -8.658e-6, -1.192e-5, -3.262e-6
0.700, -8.741e-6, -1.212e-5, -3.383e-6
0.704, -8.842e-6, -1.235e-5, -3.506e-6
0.708, -8.914e-6, -1.255e-5, -3.639e-6
0.712, -8.995e-6, -1.277e-5, -3.774e-6
0.716, -9.067e-6, -1.297e-5, -3.900e-6
0.720, -9.146e-6, -1.319e-5, -4.039e-6
0.724, -9.210e-6, -1.339e-5, -4.181e-6
0.728, -9.286e-6, -1.361e-5, -4.320e-6
0.732, -9.350e-6, -1.381e-5, -4.462e-6
0.736, -9.406e-6, -1.402e-5, -4.610e-6
0.740, -9.451e-6, -1.422e-5, -4.770e-6
0.744, -9.513e-6, -1.443e-5, -4.920e-6
0.748, -9.561e-6, -1.464e-5, -5.078e-6
0.752, -9.607e-6, -1.484e-5, -5.235e-6
0.756, -9.631e-6, -1.504e-5, -5.412e-6
0.760, -9.668e-6, -1.524e-5, -5.576e-6
0.764, -9.701e-6, -1.545e-5, -5.748e-6
0.768, -9.732e-6, -1.566e-5, -5.925e-6
0.772, -9.748e-6, -1.586e-5, -6.107e-6
0.776, -9.770e-6, -1.606e-5, -6.289e-6
0.780, -9.794e-6, -1.627e-5, -6.473e-6
0.784, -9.800e-6, -1.647e-5, -6.669e-6
0.788, -9.801e-6, -1.667e-5, -6.870e-6
0.792, -9.805e-6, -1.688e-5, -7.071e-6
0.796, -9.809e-6, -1.709e-5, -7.278e-6
0.800, -9.803e-6, -1.729e-5, -7.485e-6
0.804, -9.791e-6, -1.750e-5, -7.707e-6
0.808, -9.805e-6, -1.773e-5, -7.926e-6
0.812, -9.770e-6, -1.792e-5, -8.146e-6
0.816, -9.765e-6, -1.814e-5, -8.372e-6
0.820, -9.755e-6, -1.836e-5, -8.602e-6
0.824, -9.745e-6, -1.858e-5, -8.833e-6
0.828, -9.725e-6, -1.881e-5, -9.081e-6
0.832, -9.723e-6, -1.903e-5, -9.312e-6
0.836, -9.695e-6, -1.926e-5, -9.565e-6
0.840, -9.697e-6, -1.950e-5, -9.805e-6
0.844, -9.674e-6, -1.973e-5, -1.006e-5
0.848, -9.680e-6, -1.999e-5, -1.031e-5
0.852, -9.657e-6, -2.023e-5, -1.057e-5
0.856, -9.664e-6, -2.049e-5, -1.082e-5
0.860, -9.652e-6, -2.074e-5, -1.109e-5
0.864, -9.659e-6, -2.101e-5, -1.135e-5
0.868, -9.665e-6, -2.128e-5, -1.161e-5
0.872, -9.670e-6, -2.154e-5, -1.187e-5
0.876, -9.677e-6, -2.182e-5, -1.214e-5
0.880, -9.694e-6, -2.210e-5, -1.240e-5
0.884, -9.712e-6, -2.239e-5, -1.267e-5
0.888, -9.736e-6, -2.267e-5, -1.294e-5
0.892, -9.757e-6, -2.296e-5, -1.320e-5
0.896, -9.791e-6, -2.327e-5, -1.348e-5
0.900, -9.819e-6, -2.356e-5, -1.374e-5
0.904, -9.865e-6, -2.387e-5, -1.400e-5
0.908, -9.906e-6, -2.418e-5, -1.427e-5
0.912, -9.953e-6, -2.449e-5, -1.453e-5
0.916, -9.997e-6, -2.479e-5, -1.480e-5
0.920, -1.007e-5, -2.512e-5, -1.505e-5
0.924, -1.010e-5, -2.543e-5, -1.533e-5
0.928, -1.017e-5, -2.576e-5, -1.559e-5
0.932, -1.024e-5, -2.609e-5, -1.585e-5
0.936, -1.032e-5, -2.642e-5, -1.610e-5
0.940, -1.039e-5, -2.676e-5, -1.636e-5
0.944, -1.047e-5, -2.709e-5, -1.663e-5
0.948, -1.054e-5, -2.743e-5, -1.688e-5
0.952, -1.064e-5, -2.778e-5, -1.714e-5
0.956, -1.074e-5, -2.812e-5, -1.739e-5
0.960, -1.082e-5, -2.847e-5, -1.765e-5
0.964, -1.093e-5, -2.884e-5, -1.790e-5
0.968, -1.103e-5, -2.919e-5, -1.816e-5
0.972, -1.113e-5, -2.955e-5, -1.842e-5
0.976, -1.125e-5, -2.992e-5, -1.867e-5
0.980, -1.137e-5, -3.030e-5, -1.893e-5
0.984, -1.148e-5, -3.067e-5, -1.919e-5
0.988, -1.161e-5, -3.106e-5, -1.945e-5
0.992, -1.175e-5, -3.145e-5, -1.970e-5
0.996, -1.189e-5, -3.186e-5, -1.997e-5
1.000, -1.205e-5, -3.227e-5, -2.022e-5
1.004, -1.220e-5, -3.269e-5, -2.049e-5
1.008, -1.237e-5, -3.313e-5, -2.075e-5
1.012, -1.256e-5, -3.358e-5, -2.102e-5
1.016, -1.274e-5, -3.403e-5, -2.129e-5
1.020, -1.293e-5, -3.450e-5, -2.156e-5
1.024, -1.315e-5, -3.499e-5, -2.184e-5
1.028, -1.337e-5, -3.549e-5, -2.212e-5
1.032, -1.361e-5, -3.601e-5, -2.241e-5
1.036, -1.385e-5, -3.653e-5, -2.268e-5
1.040, -1.410e-5, -3.707e-5, -2.297e-5
1.044, -1.436e-5, -3.762e-5, -2.327e-5
1.048, -1.462e-5, -3.817e-5, -2.356e-5
1.052, -1.487e-5, -3.872e-5, -2.385e-5
1.056, -1.514e-5, -3.928e-5, -2.415e-5
1.060, -1.540e-5, -3.983e-5, -2.443e-5
1.064, -1.566e-5, -4.038e-5, -2.472e-5
1.068, -1.590e-5, -4.089e-5, -2.500e-5
1.072, -1.614e-5, -4.143e-5, -2.529e-5
1.076, -1.636e-5, -4.192e-5, -2.556e-5
1.080, -1.660e-5, -4.243e-5, -2.583e-5
1.084, -1.683e-5, -4.294e-5, -2.611e-5
1.088, -1.708e-5, -4.347e-5, -2.639e-5
1.092, -1.733e-5, -4.400e-5, -2.667e-5
1.096, -1.764e-5, -4.460e-5, -2.695e-5
1.100, -1.794e-5, -4.520e-5, -2.726e-5
1.104, -1.830e-5, -4.585e-5, -2.755e-5
1.108, -1.867e-5, -4.655e-5, -2.787e-5
1.112, -1.911e-5, -4.730e-5, -2.819e-5
1.116, -1.953e-5, -4.807e-5, -2.854e-5
1.120, -2.004e-5, -4.891e-5, -2.888e-5
1.124, -2.055e-5, -4.978e-5, -2.924e-5
1.128, -2.112e-5, -5.072e-5, -2.960e-5
1.132, -2.170e-5, -5.168e-5, -2.998e-5
1.136, -2.233e-5, -5.271e-5, -3.038e-5
1.140, -2.299e-5, -5.378e-5, -3.079e-5
1.144, -2.369e-5, -5.490e-5, -3.121e-5
1.148, -2.443e-5, -5.608e-5, -3.165e-5
1.152, -2.522e-5, -5.732e-5, -3.210e-5
1.156, -2.605e-5, -5.863e-5, -3.258e-5
1.160, -2.693e-5, -6.000e-5, -3.307e-5
1.164, -2.785e-5, -6.144e-5, -3.359e-5
1.168, -2.884e-5, -6.296e-5, -3.412e-5
1.172, -2.985e-5, -6.453e-5, -3.468e-5
1.176, -3.094e-5, -6.620e-5, -3.526e-5
1.180, -3.205e-5, -6.793e-5, -3.588e-5
1.184, -3.324e-5, -6.975e-5, -3.652e-5
1.188, -3.448e-5, -7.167e-5, -3.719e-5
1.192, -3.579e-5, -7.367e-5, -3.788e-5
1.196, -3.711e-5, -7.573e-5, -3.862e-5
1.200, -3.853e-5, -7.790e-5, -3.937e-5
