Feb. 22, 2024   12:35:46
Square Wave Voltammetry
File: c:\users\fu\desktop\noel\2024_02_22_ml2\2024_02_22_cbz00_17.txt
Data Source:  Experiment
Instrument Model:  CHI650E
Header: 
Note: 

Init E (V) = 0.5
Final E (V) = 1.2
Incr E (V) = 0.004
Amplitude (V) = 0.025
Frequency (Hz) = 15
Quiet Time (sec) = 5
Sensitivity (A/V) = 1e-5

Difference:

Forward:

Reverse:

Potential/V, Diff(i/A), For(i/A), Rev(i/A)

0.504, -6.170e-7, -6.848e-7, -6.779e-8
0.508, -6.080e-7, -6.720e-7, -6.400e-8
0.512, -6.180e-7, -6.858e-7, -6.774e-8
0.516, -6.325e-7, -7.068e-7, -7.439e-8
0.520, -6.419e-7, -7.224e-7, -8.052e-8
0.524, -6.571e-7, -7.430e-7, -8.582e-8
0.528, -6.717e-7, -7.645e-7, -9.281e-8
0.532, -6.826e-7, -7.902e-7, -1.075e-7
0.536, -6.963e-7, -8.115e-7, -1.151e-7
0.540, -7.150e-7, -8.365e-7, -1.215e-7
0.544, -7.271e-7, -8.559e-7, -1.288e-7
0.548, -7.355e-7, -8.779e-7, -1.425e-7
0.552, -7.494e-7, -9.025e-7, -1.531e-7
0.556, -7.657e-7, -9.316e-7, -1.659e-7
0.560, -7.778e-7, -9.543e-7, -1.765e-7
0.564, -7.904e-7, -9.746e-7, -1.842e-7
0.568, -8.015e-7, -9.950e-7, -1.935e-7
0.572, -8.123e-7, -1.020e-6, -2.077e-7
0.576, -8.208e-7, -1.045e-6, -2.241e-7
0.580, -8.341e-7, -1.071e-6, -2.368e-7
0.584, -8.478e-7, -1.093e-6, -2.457e-7
0.588, -8.585e-7, -1.114e-6, -2.556e-7
0.592, -8.692e-7, -1.139e-6, -2.700e-7
0.596, -8.812e-7, -1.166e-6, -2.847e-7
0.600, -8.964e-7, -1.192e-6, -2.956e-7
0.604, -9.035e-7, -1.216e-6, -3.124e-7
0.608, -9.123e-7, -1.234e-6, -3.221e-7
0.612, -9.259e-7, -1.259e-6, -3.335e-7
0.616, -9.365e-7, -1.288e-6, -3.518e-7
0.620, -9.461e-7, -1.313e-6, -3.670e-7
0.624, -9.578e-7, -1.337e-6, -3.788e-7
0.628, -9.740e-7, -1.363e-6, -3.887e-7
0.632, -9.777e-7, -1.385e-6, -4.069e-7
0.636, -9.907e-7, -1.414e-6, -4.230e-7
0.640, -1.006e-6, -1.444e-6, -4.378e-7
0.644, -1.013e-6, -1.463e-6, -4.499e-7
0.648, -1.025e-6, -1.488e-6, -4.636e-7
0.652, -1.036e-6, -1.516e-6, -4.801e-7
0.656, -1.042e-6, -1.543e-6, -5.005e-7
0.660, -1.058e-6, -1.569e-6, -5.114e-7
0.664, -1.072e-6, -1.597e-6, -5.248e-7
0.668, -1.076e-6, -1.621e-6, -5.449e-7
0.672, -1.092e-6, -1.652e-6, -5.600e-7
0.676, -1.106e-6, -1.682e-6, -5.757e-7
0.680, -1.117e-6, -1.705e-6, -5.879e-7
0.684, -1.127e-6, -1.733e-6, -6.060e-7
0.688, -1.139e-6, -1.765e-6, -6.261e-7
0.692, -1.149e-6, -1.793e-6, -6.447e-7
0.696, -1.164e-6, -1.822e-6, -6.583e-7
0.700, -1.175e-6, -1.849e-6, -6.738e-7
0.704, -1.188e-6, -1.882e-6, -6.938e-7
0.708, -1.205e-6, -1.918e-6, -7.130e-7
0.712, -1.215e-6, -1.946e-6, -7.316e-7
0.716, -1.225e-6, -1.974e-6, -7.490e-7
0.720, -1.239e-6, -2.007e-6, -7.675e-7
0.724, -1.249e-6, -2.040e-6, -7.910e-7
0.728, -1.264e-6, -2.073e-6, -8.088e-7
0.732, -1.277e-6, -2.103e-6, -8.252e-7
0.736, -1.289e-6, -2.135e-6, -8.465e-7
0.740, -1.301e-6, -2.171e-6, -8.709e-7
0.744, -1.320e-6, -2.209e-6, -8.894e-7
0.748, -1.330e-6, -2.239e-6, -9.089e-7
0.752, -1.341e-6, -2.271e-6, -9.301e-7
0.756, -1.353e-6, -2.308e-6, -9.549e-7
0.760, -1.368e-6, -2.347e-6, -9.792e-7
0.764, -1.382e-6, -2.380e-6, -9.974e-7
0.768, -1.393e-6, -2.414e-6, -1.020e-6
0.772, -1.407e-6, -2.454e-6, -1.047e-6
0.776, -1.427e-6, -2.497e-6, -1.070e-6
0.780, -1.440e-6, -2.531e-6, -1.091e-6
0.784, -1.448e-6, -2.564e-6, -1.116e-6
0.788, -1.461e-6, -2.606e-6, -1.145e-6
0.792, -1.471e-6, -2.643e-6, -1.172e-6
0.796, -1.492e-6, -2.686e-6, -1.193e-6
0.800, -1.504e-6, -2.722e-6, -1.218e-6
0.804, -1.511e-6, -2.762e-6, -1.250e-6
0.808, -1.531e-6, -2.806e-6, -1.275e-6
0.812, -1.540e-6, -2.845e-6, -1.305e-6
0.816, -1.554e-6, -2.887e-6, -1.333e-6
0.820, -1.566e-6, -2.929e-6, -1.363e-6
0.824, -1.577e-6, -2.974e-6, -1.398e-6
0.828, -1.591e-6, -3.016e-6, -1.425e-6
0.832, -1.604e-6, -3.057e-6, -1.453e-6
0.836, -1.617e-6, -3.103e-6, -1.486e-6
0.840, -1.632e-6, -3.150e-6, -1.519e-6
0.844, -1.652e-6, -3.202e-6, -1.550e-6
0.848, -1.662e-6, -3.241e-6, -1.579e-6
0.852, -1.671e-6, -3.285e-6, -1.614e-6
0.856, -1.689e-6, -3.339e-6, -1.649e-6
0.860, -1.697e-6, -3.385e-6, -1.688e-6
0.864, -1.704e-6, -3.430e-6, -1.726e-6
0.868, -1.733e-6, -3.481e-6, -1.747e-6
0.872, -1.747e-6, -3.535e-6, -1.788e-6
0.876, -1.756e-6, -3.579e-6, -1.824e-6
0.880, -1.776e-6, -3.636e-6, -1.860e-6
0.884, -1.793e-6, -3.682e-6, -1.889e-6
0.888, -1.812e-6, -3.736e-6, -1.924e-6
0.892, -1.817e-6, -3.782e-6, -1.965e-6
0.896, -1.842e-6, -3.844e-6, -2.002e-6
0.900, -1.849e-6, -3.894e-6, -2.044e-6
0.904, -1.871e-6, -3.948e-6, -2.077e-6
0.908, -1.882e-6, -4.002e-6, -2.119e-6
0.912, -1.903e-6, -4.062e-6, -2.160e-6
0.916, -1.926e-6, -4.121e-6, -2.195e-6
0.920, -1.938e-6, -4.171e-6, -2.233e-6
0.924, -1.955e-6, -4.230e-6, -2.276e-6
0.928, -1.969e-6, -4.291e-6, -2.321e-6
0.932, -1.992e-6, -4.346e-6, -2.354e-6
0.936, -2.003e-6, -4.400e-6, -2.397e-6
0.940, -2.028e-6, -4.466e-6, -2.438e-6
0.944, -2.049e-6, -4.530e-6, -2.481e-6
0.948, -2.067e-6, -4.586e-6, -2.519e-6
0.952, -2.087e-6, -4.645e-6, -2.559e-6
0.956, -2.106e-6, -4.712e-6, -2.607e-6
0.960, -2.133e-6, -4.778e-6, -2.646e-6
0.964, -2.147e-6, -4.834e-6, -2.687e-6
0.968, -2.172e-6, -4.901e-6, -2.729e-6
0.972, -2.198e-6, -4.973e-6, -2.775e-6
0.976, -2.216e-6, -5.033e-6, -2.818e-6
0.980, -2.230e-6, -5.093e-6, -2.863e-6
0.984, -2.256e-6, -5.165e-6, -2.909e-6
0.988, -2.282e-6, -5.235e-6, -2.953e-6
0.992, -2.303e-6, -5.297e-6, -2.994e-6
0.996, -2.325e-6, -5.367e-6, -3.042e-6
1.000, -2.358e-6, -5.447e-6, -3.089e-6
1.004, -2.380e-6, -5.512e-6, -3.132e-6
1.008, -2.406e-6, -5.581e-6, -3.176e-6
1.012, -2.428e-6, -5.655e-6, -3.228e-6
1.016, -2.457e-6, -5.732e-6, -3.274e-6
1.020, -2.483e-6, -5.801e-6, -3.318e-6
1.024, -2.511e-6, -5.876e-6, -3.365e-6
1.028, -2.533e-6, -5.951e-6, -3.418e-6
1.032, -2.570e-6, -6.038e-6, -3.468e-6
1.036, -2.595e-6, -6.112e-6, -3.517e-6
1.040, -2.625e-6, -6.188e-6, -3.563e-6
1.044, -2.651e-6, -6.268e-6, -3.617e-6
1.048, -2.681e-6, -6.352e-6, -3.671e-6
1.052, -2.714e-6, -6.438e-6, -3.724e-6
1.056, -2.751e-6, -6.523e-6, -3.772e-6
1.060, -2.785e-6, -6.608e-6, -3.823e-6
1.064, -2.818e-6, -6.697e-6, -3.880e-6
1.068, -2.853e-6, -6.791e-6, -3.938e-6
1.072, -2.892e-6, -6.885e-6, -3.993e-6
1.076, -2.935e-6, -6.982e-6, -4.047e-6
1.080, -2.973e-6, -7.077e-6, -4.104e-6
1.084, -3.008e-6, -7.175e-6, -4.167e-6
1.088, -3.057e-6, -7.282e-6, -4.225e-6
1.092, -3.098e-6, -7.384e-6, -4.286e-6
1.096, -3.142e-6, -7.494e-6, -4.353e-6
1.100, -3.190e-6, -7.612e-6, -4.421e-6
1.104, -3.241e-6, -7.728e-6, -4.487e-6
1.108, -3.295e-6, -7.850e-6, -4.555e-6
1.112, -3.349e-6, -7.972e-6, -4.623e-6
1.116, -3.410e-6, -8.101e-6, -4.691e-6
1.120, -3.472e-6, -8.234e-6, -4.762e-6
1.124, -3.534e-6, -8.369e-6, -4.835e-6
1.128, -3.601e-6, -8.511e-6, -4.909e-6
1.132, -3.664e-6, -8.655e-6, -4.991e-6
1.136, -3.741e-6, -8.811e-6, -5.071e-6
1.140, -3.822e-6, -8.972e-6, -5.150e-6
1.144, -3.902e-6, -9.137e-6, -5.235e-6
1.148, -3.985e-6, -9.305e-6, -5.320e-6
1.152, -4.067e-6, -9.473e-6, -5.406e-6
1.156, -4.158e-6, -9.656e-6, -5.498e-6
1.160, -4.259e-6, -9.847e-6, -5.588e-6
1.164, -4.354e-6, -1.004e-5, -5.685e-6
1.168, -4.456e-6, -1.024e-5, -5.785e-6
1.172, -4.561e-6, -1.045e-5, -5.893e-6
1.176, -4.684e-6, -1.067e-5, -5.989e-6
1.180, -4.802e-6, -1.089e-5, -6.092e-6
1.184, -4.919e-6, -1.112e-5, -6.205e-6
1.188, -5.040e-6, -1.136e-5, -6.322e-6
1.192, -5.171e-6, -1.161e-5, -6.440e-6
1.196, -5.299e-6, -1.186e-5, -6.564e-6
1.200, -5.438e-6, -1.212e-5, -6.685e-6
