Feb. 22, 2024   13:47:25
Square Wave Voltammetry
File: c:\users\fu\desktop\noel\2024_02_22_ml2\2024_02_22_cbz16_22.txt
Data Source:  Experiment
Instrument Model:  CHI650E
Header: 
Note: 

Init E (V) = 0.5
Final E (V) = 1.2
Incr E (V) = 0.004
Amplitude (V) = 0.025
Frequency (Hz) = 15
Quiet Time (sec) = 5
Sensitivity (A/V) = 1e-5

Difference:

Forward:

Reverse:

Potential/V, Diff(i/A), For(i/A), Rev(i/A)

0.504, -1.336e-6, -1.432e-6, -9.551e-8
0.508, -1.327e-6, -1.405e-6, -7.837e-8
0.512, -1.349e-6, -1.434e-6, -8.460e-8
0.516, -1.380e-6, -1.479e-6, -9.885e-8
0.520, -1.407e-6, -1.526e-6, -1.181e-7
0.524, -1.461e-6, -1.583e-6, -1.220e-7
0.528, -1.504e-6, -1.637e-6, -1.331e-7
0.532, -1.541e-6, -1.696e-6, -1.554e-7
0.536, -1.585e-6, -1.762e-6, -1.770e-7
0.540, -1.621e-6, -1.821e-6, -2.005e-7
0.544, -1.659e-6, -1.879e-6, -2.193e-7
0.548, -1.696e-6, -1.937e-6, -2.413e-7
0.552, -1.741e-6, -2.003e-6, -2.620e-7
0.556, -1.787e-6, -2.071e-6, -2.836e-7
0.560, -1.839e-6, -2.135e-6, -2.960e-7
0.564, -1.880e-6, -2.206e-6, -3.259e-7
0.568, -1.919e-6, -2.268e-6, -3.495e-7
0.572, -1.959e-6, -2.332e-6, -3.725e-7
0.576, -2.001e-6, -2.395e-6, -3.939e-7
0.580, -2.024e-6, -2.452e-6, -4.286e-7
0.584, -2.075e-6, -2.517e-6, -4.423e-7
0.588, -2.115e-6, -2.586e-6, -4.704e-7
0.592, -2.148e-6, -2.642e-6, -4.944e-7
0.596, -2.188e-6, -2.704e-6, -5.157e-7
0.600, -2.225e-6, -2.767e-6, -5.418e-7
0.604, -2.258e-6, -2.824e-6, -5.665e-7
0.608, -2.283e-6, -2.877e-6, -5.946e-7
0.612, -2.317e-6, -2.935e-6, -6.174e-7
0.616, -2.341e-6, -2.984e-6, -6.433e-7
0.620, -2.368e-6, -3.035e-6, -6.670e-7
0.624, -2.393e-6, -3.085e-6, -6.921e-7
0.628, -2.420e-6, -3.136e-6, -7.159e-7
0.632, -2.445e-6, -3.184e-6, -7.398e-7
0.636, -2.470e-6, -3.233e-6, -7.632e-7
0.640, -2.497e-6, -3.276e-6, -7.785e-7
0.644, -2.518e-6, -3.323e-6, -8.047e-7
0.648, -2.537e-6, -3.367e-6, -8.304e-7
0.652, -2.555e-6, -3.417e-6, -8.622e-7
0.656, -2.580e-6, -3.462e-6, -8.811e-7
0.660, -2.594e-6, -3.499e-6, -9.048e-7
0.664, -2.617e-6, -3.544e-6, -9.276e-7
0.668, -2.636e-6, -3.589e-6, -9.535e-7
0.672, -2.658e-6, -3.638e-6, -9.801e-7
0.676, -2.682e-6, -3.683e-6, -1.000e-6
0.680, -2.703e-6, -3.728e-6, -1.026e-6
0.684, -2.729e-6, -3.781e-6, -1.053e-6
0.688, -2.747e-6, -3.831e-6, -1.084e-6
0.692, -2.771e-6, -3.877e-6, -1.107e-6
0.696, -2.799e-6, -3.930e-6, -1.131e-6
0.700, -2.815e-6, -3.983e-6, -1.169e-6
0.704, -2.832e-6, -4.034e-6, -1.203e-6
0.708, -2.857e-6, -4.087e-6, -1.230e-6
0.712, -2.887e-6, -4.150e-6, -1.263e-6
0.716, -2.909e-6, -4.201e-6, -1.292e-6
0.720, -2.932e-6, -4.250e-6, -1.318e-6
0.724, -2.966e-6, -4.316e-6, -1.351e-6
0.728, -2.985e-6, -4.374e-6, -1.389e-6
0.732, -3.005e-6, -4.429e-6, -1.424e-6
0.736, -3.028e-6, -4.488e-6, -1.460e-6
0.740, -3.054e-6, -4.552e-6, -1.498e-6
0.744, -3.085e-6, -4.615e-6, -1.530e-6
0.748, -3.105e-6, -4.675e-6, -1.570e-6
0.752, -3.147e-6, -4.743e-6, -1.597e-6
0.756, -3.165e-6, -4.804e-6, -1.639e-6
0.760, -3.194e-6, -4.875e-6, -1.681e-6
0.764, -3.221e-6, -4.942e-6, -1.721e-6
0.768, -3.244e-6, -5.005e-6, -1.761e-6
0.772, -3.265e-6, -5.067e-6, -1.802e-6
0.776, -3.292e-6, -5.141e-6, -1.848e-6
0.780, -3.322e-6, -5.211e-6, -1.889e-6
0.784, -3.357e-6, -5.285e-6, -1.927e-6
0.788, -3.377e-6, -5.350e-6, -1.973e-6
0.792, -3.399e-6, -5.423e-6, -2.023e-6
0.796, -3.434e-6, -5.502e-6, -2.068e-6
0.800, -3.454e-6, -5.569e-6, -2.115e-6
0.804, -3.475e-6, -5.643e-6, -2.168e-6
0.808, -3.496e-6, -5.715e-6, -2.219e-6
0.812, -3.523e-6, -5.793e-6, -2.270e-6
0.816, -3.557e-6, -5.873e-6, -2.316e-6
0.820, -3.586e-6, -5.954e-6, -2.368e-6
0.824, -3.612e-6, -6.038e-6, -2.426e-6
0.828, -3.630e-6, -6.111e-6, -2.481e-6
0.832, -3.656e-6, -6.191e-6, -2.535e-6
0.836, -3.682e-6, -6.270e-6, -2.588e-6
0.840, -3.714e-6, -6.362e-6, -2.647e-6
0.844, -3.735e-6, -6.444e-6, -2.708e-6
0.848, -3.770e-6, -6.531e-6, -2.761e-6
0.852, -3.797e-6, -6.620e-6, -2.823e-6
0.856, -3.817e-6, -6.704e-6, -2.887e-6
0.860, -3.846e-6, -6.794e-6, -2.948e-6
0.864, -3.876e-6, -6.885e-6, -3.009e-6
0.868, -3.899e-6, -6.977e-6, -3.078e-6
0.872, -3.932e-6, -7.075e-6, -3.142e-6
0.876, -3.967e-6, -7.168e-6, -3.201e-6
0.880, -4.006e-6, -7.272e-6, -3.266e-6
0.884, -4.024e-6, -7.363e-6, -3.339e-6
0.888, -4.062e-6, -7.469e-6, -3.407e-6
0.892, -4.096e-6, -7.571e-6, -3.475e-6
0.896, -4.124e-6, -7.670e-6, -3.546e-6
0.900, -4.160e-6, -7.778e-6, -3.618e-6
0.904, -4.201e-6, -7.881e-6, -3.681e-6
0.908, -4.241e-6, -7.994e-6, -3.753e-6
0.912, -4.279e-6, -8.101e-6, -3.822e-6
0.916, -4.311e-6, -8.210e-6, -3.899e-6
0.920, -4.352e-6, -8.321e-6, -3.969e-6
0.924, -4.389e-6, -8.432e-6, -4.043e-6
0.928, -4.418e-6, -8.542e-6, -4.124e-6
0.932, -4.470e-6, -8.670e-6, -4.200e-6
0.936, -4.523e-6, -8.796e-6, -4.274e-6
0.940, -4.551e-6, -8.908e-6, -4.357e-6
0.944, -4.602e-6, -9.031e-6, -4.430e-6
0.948, -4.651e-6, -9.160e-6, -4.510e-6
0.952, -4.689e-6, -9.284e-6, -4.595e-6
0.956, -4.747e-6, -9.422e-6, -4.675e-6
0.960, -4.802e-6, -9.556e-6, -4.753e-6
0.964, -4.860e-6, -9.693e-6, -4.833e-6
0.968, -4.924e-6, -9.836e-6, -4.912e-6
0.972, -4.981e-6, -9.983e-6, -5.002e-6
0.976, -5.047e-6, -1.013e-5, -5.086e-6
0.980, -5.101e-6, -1.028e-5, -5.180e-6
0.984, -5.176e-6, -1.044e-5, -5.266e-6
0.988, -5.253e-6, -1.061e-5, -5.357e-6
0.992, -5.340e-6, -1.079e-5, -5.445e-6
0.996, -5.425e-6, -1.096e-5, -5.539e-6
1.000, -5.520e-6, -1.116e-5, -5.643e-6
1.004, -5.609e-6, -1.135e-5, -5.740e-6
1.008, -5.715e-6, -1.156e-5, -5.845e-6
1.012, -5.818e-6, -1.177e-5, -5.951e-6
1.016, -5.926e-6, -1.199e-5, -6.066e-6
1.020, -6.054e-6, -1.223e-5, -6.177e-6
1.024, -6.191e-6, -1.247e-5, -6.282e-6
1.028, -6.315e-6, -1.272e-5, -6.408e-6
1.032, -6.454e-6, -1.298e-5, -6.530e-6
1.036, -6.579e-6, -1.324e-5, -6.657e-6
1.040, -6.714e-6, -1.350e-5, -6.782e-6
1.044, -6.847e-6, -1.375e-5, -6.907e-6
1.048, -6.971e-6, -1.401e-5, -7.035e-6
1.052, -7.095e-6, -1.425e-5, -7.153e-6
1.056, -7.200e-6, -1.448e-5, -7.279e-6
1.060, -7.281e-6, -1.469e-5, -7.406e-6
1.064, -7.367e-6, -1.489e-5, -7.522e-6
1.068, -7.424e-6, -1.506e-5, -7.637e-6
1.072, -7.477e-6, -1.523e-5, -7.752e-6
1.076, -7.525e-6, -1.538e-5, -7.855e-6
1.080, -7.554e-6, -1.552e-5, -7.966e-6
1.084, -7.591e-6, -1.566e-5, -8.071e-6
1.088, -7.636e-6, -1.581e-5, -8.171e-6
1.092, -7.659e-6, -1.595e-5, -8.292e-6
1.096, -7.727e-6, -1.612e-5, -8.398e-6
1.100, -7.795e-6, -1.630e-5, -8.507e-6
1.104, -7.879e-6, -1.651e-5, -8.626e-6
1.108, -7.965e-6, -1.672e-5, -8.754e-6
1.112, -8.072e-6, -1.696e-5, -8.884e-6
1.116, -8.174e-6, -1.719e-5, -9.020e-6
1.120, -8.301e-6, -1.746e-5, -9.160e-6
1.124, -8.437e-6, -1.774e-5, -9.304e-6
1.128, -8.595e-6, -1.804e-5, -9.443e-6
1.132, -8.742e-6, -1.834e-5, -9.600e-6
1.136, -8.907e-6, -1.867e-5, -9.762e-6
1.140, -9.076e-6, -1.899e-5, -9.919e-6
1.144, -9.259e-6, -1.934e-5, -1.008e-5
1.148, -9.453e-6, -1.970e-5, -1.025e-5
1.152, -9.668e-6, -2.009e-5, -1.042e-5
1.156, -9.878e-6, -2.048e-5, -1.060e-5
1.160, -1.011e-5, -2.091e-5, -1.080e-5
1.164, -1.036e-5, -2.134e-5, -1.098e-5
1.168, -1.061e-5, -2.180e-5, -1.119e-5
1.172, -1.088e-5, -2.228e-5, -1.139e-5
1.176, -1.116e-5, -2.278e-5, -1.162e-5
1.180, -1.149e-5, -2.330e-5, -1.182e-5
1.184, -1.180e-5, -2.385e-5, -1.205e-5
1.188, -1.214e-5, -2.443e-5, -1.229e-5
1.192, -1.249e-5, -2.504e-5, -1.254e-5
1.196, -1.286e-5, -2.566e-5, -1.280e-5
1.200, -1.325e-5, -2.632e-5, -1.306e-5
