Feb. 22, 2024   11:20:49
Square Wave Voltammetry
File: c:\users\fu\desktop\noel\2024_02_22_ml2\2024_02_22_cbz16_07.txt
Data Source:  Experiment
Instrument Model:  CHI650E
Header: 
Note: 

Init E (V) = 0.5
Final E (V) = 1.2
Incr E (V) = 0.004
Amplitude (V) = 0.025
Frequency (Hz) = 15
Quiet Time (sec) = 5
Sensitivity (A/V) = 1e-5

Difference:

Forward:

Reverse:

Potential/V, Diff(i/A), For(i/A), Rev(i/A)

0.504, -5.752e-7, -6.359e-7, -6.073e-8
0.508, -5.668e-7, -6.209e-7, -5.405e-8
0.512, -5.833e-7, -6.385e-7, -5.520e-8
0.516, -5.920e-7, -6.514e-7, -5.934e-8
0.520, -6.012e-7, -6.687e-7, -6.751e-8
0.524, -6.180e-7, -6.888e-7, -7.079e-8
0.528, -6.347e-7, -7.130e-7, -7.825e-8
0.532, -6.485e-7, -7.341e-7, -8.564e-8
0.536, -6.628e-7, -7.560e-7, -9.323e-8
0.540, -6.796e-7, -7.806e-7, -1.010e-7
0.544, -6.886e-7, -8.004e-7, -1.118e-7
0.548, -7.037e-7, -8.238e-7, -1.200e-7
0.552, -7.214e-7, -8.483e-7, -1.269e-7
0.556, -7.344e-7, -8.717e-7, -1.373e-7
0.560, -7.462e-7, -8.938e-7, -1.477e-7
0.564, -7.610e-7, -9.168e-7, -1.558e-7
0.568, -7.718e-7, -9.394e-7, -1.676e-7
0.572, -7.867e-7, -9.637e-7, -1.770e-7
0.576, -8.008e-7, -9.892e-7, -1.884e-7
0.580, -8.127e-7, -1.012e-6, -1.994e-7
0.584, -8.268e-7, -1.039e-6, -2.119e-7
0.588, -8.382e-7, -1.061e-6, -2.225e-7
0.592, -8.516e-7, -1.085e-6, -2.333e-7
0.596, -8.654e-7, -1.113e-6, -2.473e-7
0.600, -8.787e-7, -1.136e-6, -2.577e-7
0.604, -8.930e-7, -1.165e-6, -2.718e-7
0.608, -9.006e-7, -1.186e-6, -2.854e-7
0.612, -9.172e-7, -1.215e-6, -2.977e-7
0.616, -9.269e-7, -1.239e-6, -3.116e-7
0.620, -9.387e-7, -1.265e-6, -3.261e-7
0.624, -9.513e-7, -1.289e-6, -3.381e-7
0.628, -9.622e-7, -1.318e-6, -3.554e-7
0.632, -9.764e-7, -1.344e-6, -3.680e-7
0.636, -9.875e-7, -1.371e-6, -3.833e-7
0.640, -1.000e-6, -1.396e-6, -3.964e-7
0.644, -1.014e-6, -1.422e-6, -4.084e-7
0.648, -1.031e-6, -1.452e-6, -4.211e-7
0.652, -1.042e-6, -1.476e-6, -4.344e-7
0.656, -1.060e-6, -1.505e-6, -4.446e-7
0.660, -1.069e-6, -1.532e-6, -4.623e-7
0.664, -1.079e-6, -1.558e-6, -4.794e-7
0.668, -1.094e-6, -1.588e-6, -4.942e-7
0.672, -1.108e-6, -1.617e-6, -5.081e-7
0.676, -1.120e-6, -1.647e-6, -5.269e-7
0.680, -1.136e-6, -1.679e-6, -5.436e-7
0.684, -1.148e-6, -1.708e-6, -5.603e-7
0.688, -1.163e-6, -1.741e-6, -5.776e-7
0.692, -1.181e-6, -1.774e-6, -5.938e-7
0.696, -1.193e-6, -1.805e-6, -6.129e-7
0.700, -1.206e-6, -1.837e-6, -6.308e-7
0.704, -1.220e-6, -1.868e-6, -6.481e-7
0.708, -1.232e-6, -1.900e-6, -6.677e-7
0.712, -1.249e-6, -1.934e-6, -6.854e-7
0.716, -1.263e-6, -1.963e-6, -7.000e-7
0.720, -1.275e-6, -1.998e-6, -7.230e-7
0.724, -1.287e-6, -2.028e-6, -7.412e-7
0.728, -1.302e-6, -2.063e-6, -7.606e-7
0.732, -1.313e-6, -2.094e-6, -7.811e-7
0.736, -1.329e-6, -2.131e-6, -8.015e-7
0.740, -1.344e-6, -2.167e-6, -8.230e-7
0.744, -1.362e-6, -2.206e-6, -8.444e-7
0.748, -1.372e-6, -2.242e-6, -8.697e-7
0.752, -1.387e-6, -2.279e-6, -8.917e-7
0.756, -1.399e-6, -2.315e-6, -9.155e-7
0.760, -1.410e-6, -2.350e-6, -9.400e-7
0.764, -1.428e-6, -2.389e-6, -9.612e-7
0.768, -1.442e-6, -2.426e-6, -9.833e-7
0.772, -1.457e-6, -2.462e-6, -1.005e-6
0.776, -1.469e-6, -2.500e-6, -1.031e-6
0.780, -1.484e-6, -2.540e-6, -1.056e-6
0.784, -1.497e-6, -2.578e-6, -1.081e-6
0.788, -1.506e-6, -2.617e-6, -1.111e-6
0.792, -1.523e-6, -2.662e-6, -1.139e-6
0.796, -1.533e-6, -2.702e-6, -1.168e-6
0.800, -1.550e-6, -2.746e-6, -1.196e-6
0.804, -1.563e-6, -2.787e-6, -1.224e-6
0.808, -1.579e-6, -2.830e-6, -1.250e-6
0.812, -1.586e-6, -2.866e-6, -1.280e-6
0.816, -1.599e-6, -2.906e-6, -1.308e-6
0.820, -1.610e-6, -2.953e-6, -1.342e-6
0.824, -1.626e-6, -2.998e-6, -1.371e-6
0.828, -1.635e-6, -3.043e-6, -1.408e-6
0.832, -1.650e-6, -3.089e-6, -1.439e-6
0.836, -1.664e-6, -3.135e-6, -1.471e-6
0.840, -1.684e-6, -3.182e-6, -1.498e-6
0.844, -1.691e-6, -3.224e-6, -1.534e-6
0.848, -1.707e-6, -3.272e-6, -1.566e-6
0.852, -1.718e-6, -3.322e-6, -1.604e-6
0.856, -1.731e-6, -3.372e-6, -1.641e-6
0.860, -1.745e-6, -3.423e-6, -1.678e-6
0.864, -1.765e-6, -3.475e-6, -1.711e-6
0.868, -1.776e-6, -3.522e-6, -1.746e-6
0.872, -1.790e-6, -3.570e-6, -1.780e-6
0.876, -1.800e-6, -3.620e-6, -1.820e-6
0.880, -1.818e-6, -3.680e-6, -1.862e-6
0.884, -1.833e-6, -3.732e-6, -1.898e-6
0.888, -1.853e-6, -3.785e-6, -1.931e-6
0.892, -1.864e-6, -3.834e-6, -1.970e-6
0.896, -1.884e-6, -3.895e-6, -2.011e-6
0.900, -1.901e-6, -3.949e-6, -2.049e-6
0.904, -1.923e-6, -4.008e-6, -2.086e-6
0.908, -1.935e-6, -4.059e-6, -2.124e-6
0.912, -1.951e-6, -4.121e-6, -2.170e-6
0.916, -1.969e-6, -4.180e-6, -2.212e-6
0.920, -1.990e-6, -4.237e-6, -2.247e-6
0.924, -2.007e-6, -4.296e-6, -2.289e-6
0.928, -2.025e-6, -4.356e-6, -2.331e-6
0.932, -2.055e-6, -4.425e-6, -2.370e-6
0.936, -2.073e-6, -4.481e-6, -2.408e-6
0.940, -2.087e-6, -4.543e-6, -2.456e-6
0.944, -2.111e-6, -4.611e-6, -2.500e-6
0.948, -2.137e-6, -4.674e-6, -2.537e-6
0.952, -2.162e-6, -4.740e-6, -2.578e-6
0.956, -2.183e-6, -4.807e-6, -2.624e-6
0.960, -2.211e-6, -4.880e-6, -2.669e-6
0.964, -2.240e-6, -4.949e-6, -2.709e-6
0.968, -2.264e-6, -5.017e-6, -2.753e-6
0.972, -2.297e-6, -5.095e-6, -2.798e-6
0.976, -2.321e-6, -5.170e-6, -2.849e-6
0.980, -2.361e-6, -5.247e-6, -2.886e-6
0.984, -2.389e-6, -5.323e-6, -2.934e-6
0.988, -2.423e-6, -5.409e-6, -2.986e-6
0.992, -2.469e-6, -5.499e-6, -3.030e-6
0.996, -2.507e-6, -5.583e-6, -3.076e-6
1.000, -2.546e-6, -5.671e-6, -3.125e-6
1.004, -2.586e-6, -5.766e-6, -3.180e-6
1.008, -2.635e-6, -5.870e-6, -3.235e-6
1.012, -2.682e-6, -5.971e-6, -3.289e-6
1.016, -2.742e-6, -6.076e-6, -3.334e-6
1.020, -2.791e-6, -6.179e-6, -3.388e-6
1.024, -2.844e-6, -6.291e-6, -3.446e-6
1.028, -2.899e-6, -6.407e-6, -3.508e-6
1.032, -2.960e-6, -6.520e-6, -3.560e-6
1.036, -3.014e-6, -6.633e-6, -3.618e-6
1.040, -3.068e-6, -6.749e-6, -3.681e-6
1.044, -3.115e-6, -6.860e-6, -3.746e-6
1.048, -3.167e-6, -6.968e-6, -3.801e-6
1.052, -3.210e-6, -7.067e-6, -3.857e-6
1.056, -3.247e-6, -7.168e-6, -3.921e-6
1.060, -3.283e-6, -7.264e-6, -3.980e-6
1.064, -3.309e-6, -7.344e-6, -4.035e-6
1.068, -3.329e-6, -7.425e-6, -4.096e-6
1.072, -3.358e-6, -7.512e-6, -4.154e-6
1.076, -3.381e-6, -7.589e-6, -4.208e-6
1.080, -3.396e-6, -7.667e-6, -4.270e-6
1.084, -3.424e-6, -7.753e-6, -4.330e-6
1.088, -3.447e-6, -7.834e-6, -4.388e-6
1.092, -3.470e-6, -7.922e-6, -4.452e-6
1.096, -3.506e-6, -8.018e-6, -4.512e-6
1.100, -3.533e-6, -8.108e-6, -4.575e-6
1.104, -3.569e-6, -8.210e-6, -4.641e-6
1.108, -3.605e-6, -8.309e-6, -4.704e-6
1.112, -3.644e-6, -8.414e-6, -4.770e-6
1.116, -3.682e-6, -8.520e-6, -4.838e-6
1.120, -3.723e-6, -8.627e-6, -4.904e-6
1.124, -3.772e-6, -8.746e-6, -4.973e-6
1.128, -3.819e-6, -8.860e-6, -5.041e-6
1.132, -3.863e-6, -8.979e-6, -5.115e-6
1.136, -3.928e-6, -9.105e-6, -5.177e-6
1.140, -3.972e-6, -9.227e-6, -5.254e-6
1.144, -4.038e-6, -9.364e-6, -5.325e-6
1.148, -4.091e-6, -9.489e-6, -5.398e-6
1.152, -4.160e-6, -9.633e-6, -5.474e-6
1.156, -4.224e-6, -9.769e-6, -5.545e-6
1.160, -4.293e-6, -9.919e-6, -5.626e-6
1.164, -4.368e-6, -1.007e-5, -5.705e-6
1.168, -4.441e-6, -1.022e-5, -5.781e-6
1.172, -4.521e-6, -1.039e-5, -5.868e-6
1.176, -4.609e-6, -1.055e-5, -5.943e-6
1.180, -4.692e-6, -1.072e-5, -6.032e-6
1.184, -4.785e-6, -1.090e-5, -6.116e-6
1.188, -4.873e-6, -1.108e-5, -6.208e-6
1.192, -4.973e-6, -1.127e-5, -6.297e-6
1.196, -5.068e-6, -1.146e-5, -6.391e-6
1.200, -5.172e-6, -1.166e-5, -6.488e-6
