Feb. 19, 2024   16:36:10
Square Wave Voltammetry
File: c:\users\fu\desktop\noel\2024_02_19_ml1\2024_02_19_cbz00_29.txt
Data Source:  Experiment
Instrument Model:  CHI650E
Header: 
Note: 

Init E (V) = 0.5
Final E (V) = 1.2
Incr E (V) = 0.004
Amplitude (V) = 0.025
Frequency (Hz) = 15
Quiet Time (sec) = 5
Sensitivity (A/V) = 1e-5

Difference:

Forward:

Reverse:

Potential/V, Diff(i/A), For(i/A), Rev(i/A)

0.504, -1.110e-6, -1.396e-6, -2.863e-7
0.508, -1.105e-6, -1.380e-6, -2.749e-7
0.512, -1.117e-6, -1.417e-6, -2.996e-7
0.516, -1.150e-6, -1.457e-6, -3.078e-7
0.520, -1.187e-6, -1.502e-6, -3.153e-7
0.524, -1.204e-6, -1.545e-6, -3.409e-7
0.528, -1.257e-6, -1.611e-6, -3.542e-7
0.532, -1.286e-6, -1.656e-6, -3.696e-7
0.536, -1.322e-6, -1.706e-6, -3.844e-7
0.540, -1.341e-6, -1.763e-6, -4.213e-7
0.544, -1.371e-6, -1.807e-6, -4.365e-7
0.548, -1.418e-6, -1.867e-6, -4.489e-7
0.552, -1.438e-6, -1.913e-6, -4.749e-7
0.556, -1.484e-6, -1.982e-6, -4.980e-7
0.560, -1.512e-6, -2.036e-6, -5.241e-7
0.564, -1.542e-6, -2.083e-6, -5.408e-7
0.568, -1.572e-6, -2.142e-6, -5.701e-7
0.572, -1.604e-6, -2.196e-6, -5.926e-7
0.576, -1.653e-6, -2.264e-6, -6.111e-7
0.580, -1.682e-6, -2.317e-6, -6.349e-7
0.584, -1.711e-6, -2.370e-6, -6.585e-7
0.588, -1.734e-6, -2.431e-6, -6.968e-7
0.592, -1.771e-6, -2.488e-6, -7.174e-7
0.596, -1.813e-6, -2.549e-6, -7.364e-7
0.600, -1.836e-6, -2.603e-6, -7.672e-7
0.604, -1.879e-6, -2.670e-6, -7.908e-7
0.608, -1.899e-6, -2.730e-6, -8.310e-7
0.612, -1.928e-6, -2.782e-6, -8.546e-7
0.616, -1.975e-6, -2.851e-6, -8.762e-7
0.620, -1.996e-6, -2.903e-6, -9.074e-7
0.624, -2.047e-6, -2.980e-6, -9.328e-7
0.628, -2.073e-6, -3.042e-6, -9.698e-7
0.632, -2.105e-6, -3.098e-6, -9.936e-7
0.636, -2.135e-6, -3.162e-6, -1.028e-6
0.640, -2.164e-6, -3.226e-6, -1.062e-6
0.644, -2.217e-6, -3.307e-6, -1.089e-6
0.648, -2.242e-6, -3.365e-6, -1.123e-6
0.652, -2.281e-6, -3.428e-6, -1.147e-6
0.656, -2.309e-6, -3.504e-6, -1.195e-6
0.660, -2.343e-6, -3.571e-6, -1.228e-6
0.664, -2.395e-6, -3.651e-6, -1.256e-6
0.668, -2.424e-6, -3.719e-6, -1.295e-6
0.672, -2.465e-6, -3.792e-6, -1.327e-6
0.676, -2.493e-6, -3.869e-6, -1.376e-6
0.680, -2.533e-6, -3.943e-6, -1.411e-6
0.684, -2.576e-6, -4.018e-6, -1.442e-6
0.688, -2.603e-6, -4.092e-6, -1.489e-6
0.692, -2.657e-6, -4.180e-6, -1.523e-6
0.696, -2.689e-6, -4.261e-6, -1.573e-6
0.700, -2.718e-6, -4.332e-6, -1.614e-6
0.704, -2.766e-6, -4.416e-6, -1.651e-6
0.708, -2.788e-6, -4.493e-6, -1.705e-6
0.712, -2.842e-6, -4.586e-6, -1.743e-6
0.716, -2.878e-6, -4.671e-6, -1.793e-6
0.720, -2.916e-6, -4.750e-6, -1.834e-6
0.724, -2.946e-6, -4.834e-6, -1.888e-6
0.728, -2.975e-6, -4.923e-6, -1.948e-6
0.732, -3.035e-6, -5.017e-6, -1.981e-6
0.736, -3.060e-6, -5.097e-6, -2.037e-6
0.740, -3.099e-6, -5.184e-6, -2.085e-6
0.744, -3.134e-6, -5.281e-6, -2.147e-6
0.748, -3.156e-6, -5.360e-6, -2.204e-6
0.752, -3.203e-6, -5.455e-6, -2.251e-6
0.756, -3.227e-6, -5.539e-6, -2.312e-6
0.760, -3.272e-6, -5.644e-6, -2.372e-6
0.764, -3.296e-6, -5.731e-6, -2.436e-6
0.768, -3.332e-6, -5.820e-6, -2.488e-6
0.772, -3.356e-6, -5.916e-6, -2.560e-6
0.776, -3.386e-6, -6.010e-6, -2.624e-6
0.780, -3.427e-6, -6.106e-6, -2.679e-6
0.784, -3.450e-6, -6.198e-6, -2.749e-6
0.788, -3.490e-6, -6.303e-6, -2.813e-6
0.792, -3.516e-6, -6.403e-6, -2.887e-6
0.796, -3.544e-6, -6.496e-6, -2.952e-6
0.800, -3.564e-6, -6.596e-6, -3.031e-6
0.804, -3.590e-6, -6.695e-6, -3.105e-6
0.808, -3.637e-6, -6.810e-6, -3.173e-6
0.812, -3.657e-6, -6.905e-6, -3.248e-6
0.816, -3.689e-6, -7.013e-6, -3.324e-6
0.820, -3.709e-6, -7.121e-6, -3.412e-6
0.824, -3.737e-6, -7.222e-6, -3.485e-6
0.828, -3.769e-6, -7.332e-6, -3.564e-6
0.832, -3.785e-6, -7.436e-6, -3.651e-6
0.836, -3.834e-6, -7.563e-6, -3.730e-6
0.840, -3.853e-6, -7.667e-6, -3.814e-6
0.844, -3.893e-6, -7.783e-6, -3.890e-6
0.848, -3.914e-6, -7.905e-6, -3.991e-6
0.852, -3.938e-6, -8.015e-6, -4.077e-6
0.856, -3.983e-6, -8.138e-6, -4.155e-6
0.860, -3.991e-6, -8.250e-6, -4.259e-6
0.864, -4.043e-6, -8.387e-6, -4.344e-6
0.868, -4.064e-6, -8.506e-6, -4.442e-6
0.872, -4.103e-6, -8.629e-6, -4.526e-6
0.876, -4.129e-6, -8.761e-6, -4.632e-6
0.880, -4.161e-6, -8.881e-6, -4.720e-6
0.884, -4.205e-6, -9.014e-6, -4.810e-6
0.888, -4.224e-6, -9.136e-6, -4.912e-6
0.892, -4.274e-6, -9.281e-6, -5.006e-6
0.896, -4.312e-6, -9.413e-6, -5.101e-6
0.900, -4.344e-6, -9.537e-6, -5.193e-6
0.904, -4.381e-6, -9.678e-6, -5.297e-6
0.908, -4.412e-6, -9.809e-6, -5.397e-6
0.912, -4.471e-6, -9.951e-6, -5.481e-6
0.916, -4.495e-6, -1.009e-5, -5.591e-6
0.920, -4.540e-6, -1.023e-5, -5.687e-6
0.924, -4.579e-6, -1.037e-5, -5.792e-6
0.928, -4.624e-6, -1.051e-5, -5.882e-6
0.932, -4.666e-6, -1.065e-5, -5.988e-6
0.936, -4.704e-6, -1.079e-5, -6.087e-6
0.940, -4.759e-6, -1.094e-5, -6.184e-6
0.944, -4.803e-6, -1.108e-5, -6.280e-6
0.948, -4.849e-6, -1.123e-5, -6.378e-6
0.952, -4.886e-6, -1.138e-5, -6.492e-6
0.956, -4.929e-6, -1.152e-5, -6.586e-6
0.960, -4.991e-6, -1.167e-5, -6.678e-6
0.964, -5.028e-6, -1.181e-5, -6.783e-6
0.968, -5.093e-6, -1.197e-5, -6.882e-6
0.972, -5.136e-6, -1.212e-5, -6.982e-6
0.976, -5.190e-6, -1.227e-5, -7.076e-6
0.980, -5.231e-6, -1.242e-5, -7.192e-6
0.984, -5.286e-6, -1.257e-5, -7.288e-6
0.988, -5.340e-6, -1.272e-5, -7.380e-6
0.992, -5.387e-6, -1.287e-5, -7.486e-6
0.996, -5.459e-6, -1.304e-5, -7.580e-6
1.000, -5.504e-6, -1.319e-5, -7.690e-6
1.004, -5.549e-6, -1.333e-5, -7.786e-6
1.008, -5.614e-6, -1.350e-5, -7.887e-6
1.012, -5.656e-6, -1.365e-5, -7.995e-6
1.016, -5.736e-6, -1.382e-5, -8.087e-6
1.020, -5.781e-6, -1.397e-5, -8.190e-6
1.024, -5.845e-6, -1.413e-5, -8.284e-6
1.028, -5.896e-6, -1.430e-5, -8.400e-6
1.032, -5.956e-6, -1.446e-5, -8.502e-6
1.036, -6.031e-6, -1.462e-5, -8.594e-6
1.040, -6.087e-6, -1.479e-5, -8.700e-6
1.044, -6.158e-6, -1.496e-5, -8.802e-6
1.048, -6.214e-6, -1.513e-5, -8.919e-6
1.052, -6.281e-6, -1.530e-5, -9.019e-6
1.056, -6.365e-6, -1.548e-5, -9.115e-6
1.060, -6.429e-6, -1.565e-5, -9.226e-6
1.064, -6.519e-6, -1.585e-5, -9.330e-6
1.068, -6.586e-6, -1.603e-5, -9.443e-6
1.072, -6.667e-6, -1.621e-5, -9.543e-6
1.076, -6.753e-6, -1.640e-5, -9.652e-6
1.080, -6.826e-6, -1.660e-5, -9.771e-6
1.084, -6.941e-6, -1.681e-5, -9.873e-6
1.088, -7.028e-6, -1.701e-5, -9.986e-6
1.092, -7.125e-6, -1.722e-5, -1.010e-5
1.096, -7.234e-6, -1.745e-5, -1.022e-5
1.100, -7.337e-6, -1.767e-5, -1.034e-5
1.104, -7.469e-6, -1.792e-5, -1.045e-5
1.108, -7.583e-6, -1.815e-5, -1.057e-5
1.112, -7.704e-6, -1.839e-5, -1.068e-5
1.116, -7.838e-6, -1.865e-5, -1.082e-5
1.120, -7.972e-6, -1.892e-5, -1.095e-5
1.124, -8.134e-6, -1.920e-5, -1.106e-5
1.128, -8.289e-6, -1.949e-5, -1.120e-5
1.132, -8.460e-6, -1.979e-5, -1.133e-5
1.136, -8.631e-6, -2.011e-5, -1.148e-5
1.140, -8.814e-6, -2.043e-5, -1.162e-5
1.144, -9.023e-6, -2.078e-5, -1.176e-5
1.148, -9.212e-6, -2.112e-5, -1.191e-5
1.152, -9.450e-6, -2.151e-5, -1.206e-5
1.156, -9.667e-6, -2.189e-5, -1.222e-5
1.160, -9.902e-6, -2.229e-5, -1.238e-5
1.164, -1.016e-5, -2.271e-5, -1.255e-5
1.168, -1.041e-5, -2.314e-5, -1.272e-5
1.172, -1.070e-5, -2.361e-5, -1.291e-5
1.176, -1.098e-5, -2.408e-5, -1.310e-5
1.180, -1.127e-5, -2.456e-5, -1.329e-5
1.184, -1.158e-5, -2.508e-5, -1.349e-5
1.188, -1.189e-5, -2.560e-5, -1.371e-5
1.192, -1.225e-5, -2.617e-5, -1.392e-5
1.196, -1.256e-5, -2.672e-5, -1.416e-5
1.200, -1.292e-5, -2.730e-5, -1.438e-5
