Feb. 19, 2024   18:30:31
Square Wave Voltammetry
File: c:\users\fu\desktop\noel\2024_02_19_ml1\2024_02_19_cbz16_39.txt
Data Source:  Experiment
Instrument Model:  CHI650E
Header: 
Note: 

Init E (V) = 0.5
Final E (V) = 1.2
Incr E (V) = 0.004
Amplitude (V) = 0.025
Frequency (Hz) = 15
Quiet Time (sec) = 5
Sensitivity (A/V) = 1e-5

Difference:

Forward:

Reverse:

Potential/V, Diff(i/A), For(i/A), Rev(i/A)

0.504, -9.838e-7, -1.250e-6, -2.662e-7
0.508, -9.836e-7, -1.238e-6, -2.545e-7
0.512, -9.978e-7, -1.263e-6, -2.649e-7
0.516, -1.035e-6, -1.311e-6, -2.758e-7
0.520, -1.059e-6, -1.350e-6, -2.910e-7
0.524, -1.087e-6, -1.388e-6, -3.007e-7
0.528, -1.115e-6, -1.440e-6, -3.243e-7
0.532, -1.141e-6, -1.480e-6, -3.390e-7
0.536, -1.185e-6, -1.535e-6, -3.507e-7
0.540, -1.210e-6, -1.578e-6, -3.684e-7
0.544, -1.237e-6, -1.623e-6, -3.865e-7
0.548, -1.262e-6, -1.677e-6, -4.156e-7
0.552, -1.295e-6, -1.721e-6, -4.262e-7
0.556, -1.325e-6, -1.767e-6, -4.422e-7
0.560, -1.344e-6, -1.811e-6, -4.669e-7
0.564, -1.386e-6, -1.872e-6, -4.858e-7
0.568, -1.409e-6, -1.918e-6, -5.092e-7
0.572, -1.434e-6, -1.962e-6, -5.275e-7
0.576, -1.468e-6, -2.013e-6, -5.449e-7
0.580, -1.492e-6, -2.062e-6, -5.691e-7
0.584, -1.530e-6, -2.122e-6, -5.921e-7
0.588, -1.550e-6, -2.168e-6, -6.180e-7
0.592, -1.581e-6, -2.217e-6, -6.361e-7
0.596, -1.613e-6, -2.273e-6, -6.596e-7
0.600, -1.638e-6, -2.325e-6, -6.865e-7
0.604, -1.676e-6, -2.386e-6, -7.099e-7
0.608, -1.702e-6, -2.444e-6, -7.421e-7
0.612, -1.730e-6, -2.496e-6, -7.653e-7
0.616, -1.774e-6, -2.557e-6, -7.835e-7
0.620, -1.796e-6, -2.612e-6, -8.166e-7
0.624, -1.832e-6, -2.674e-6, -8.415e-7
0.628, -1.856e-6, -2.736e-6, -8.806e-7
0.632, -1.893e-6, -2.798e-6, -9.043e-7
0.636, -1.933e-6, -2.862e-6, -9.291e-7
0.640, -1.958e-6, -2.923e-6, -9.643e-7
0.644, -2.002e-6, -2.994e-6, -9.925e-7
0.648, -2.030e-6, -3.062e-6, -1.032e-6
0.652, -2.068e-6, -3.128e-6, -1.061e-6
0.656, -2.114e-6, -3.200e-6, -1.086e-6
0.660, -2.142e-6, -3.266e-6, -1.124e-6
0.664, -2.189e-6, -3.346e-6, -1.158e-6
0.668, -2.220e-6, -3.419e-6, -1.199e-6
0.672, -2.261e-6, -3.492e-6, -1.231e-6
0.676, -2.302e-6, -3.566e-6, -1.264e-6
0.680, -2.334e-6, -3.639e-6, -1.306e-6
0.684, -2.389e-6, -3.732e-6, -1.343e-6
0.688, -2.421e-6, -3.807e-6, -1.386e-6
0.692, -2.453e-6, -3.879e-6, -1.425e-6
0.696, -2.498e-6, -3.966e-6, -1.468e-6
0.700, -2.536e-6, -4.048e-6, -1.513e-6
0.704, -2.592e-6, -4.144e-6, -1.552e-6
0.708, -2.624e-6, -4.222e-6, -1.598e-6
0.712, -2.664e-6, -4.304e-6, -1.640e-6
0.716, -2.695e-6, -4.394e-6, -1.699e-6
0.720, -2.739e-6, -4.480e-6, -1.741e-6
0.724, -2.784e-6, -4.568e-6, -1.784e-6
0.728, -2.820e-6, -4.657e-6, -1.837e-6
0.732, -2.865e-6, -4.752e-6, -1.887e-6
0.736, -2.894e-6, -4.840e-6, -1.947e-6
0.740, -2.932e-6, -4.926e-6, -1.994e-6
0.744, -2.969e-6, -5.018e-6, -2.049e-6
0.748, -2.996e-6, -5.108e-6, -2.112e-6
0.752, -3.051e-6, -5.210e-6, -2.159e-6
0.756, -3.080e-6, -5.300e-6, -2.220e-6
0.760, -3.116e-6, -5.390e-6, -2.273e-6
0.764, -3.146e-6, -5.491e-6, -2.346e-6
0.768, -3.180e-6, -5.584e-6, -2.404e-6
0.772, -3.218e-6, -5.679e-6, -2.460e-6
0.776, -3.244e-6, -5.774e-6, -2.530e-6
0.780, -3.287e-6, -5.881e-6, -2.594e-6
0.784, -3.315e-6, -5.977e-6, -2.662e-6
0.788, -3.345e-6, -6.074e-6, -2.729e-6
0.792, -3.374e-6, -6.173e-6, -2.798e-6
0.796, -3.400e-6, -6.273e-6, -2.873e-6
0.800, -3.445e-6, -6.384e-6, -2.939e-6
0.804, -3.468e-6, -6.484e-6, -3.016e-6
0.808, -3.497e-6, -6.583e-6, -3.085e-6
0.812, -3.514e-6, -6.687e-6, -3.174e-6
0.816, -3.547e-6, -6.795e-6, -3.248e-6
0.820, -3.582e-6, -6.904e-6, -3.322e-6
0.824, -3.608e-6, -7.010e-6, -3.403e-6
0.828, -3.633e-6, -7.115e-6, -3.481e-6
0.832, -3.660e-6, -7.231e-6, -3.571e-6
0.836, -3.684e-6, -7.339e-6, -3.654e-6
0.840, -3.723e-6, -7.453e-6, -3.731e-6
0.844, -3.747e-6, -7.567e-6, -3.820e-6
0.848, -3.781e-6, -7.686e-6, -3.905e-6
0.852, -3.800e-6, -7.802e-6, -4.001e-6
0.856, -3.836e-6, -7.923e-6, -4.087e-6
0.860, -3.872e-6, -8.041e-6, -4.170e-6
0.864, -3.897e-6, -8.161e-6, -4.263e-6
0.868, -3.928e-6, -8.281e-6, -4.353e-6
0.872, -3.952e-6, -8.409e-6, -4.458e-6
0.876, -3.985e-6, -8.531e-6, -4.546e-6
0.880, -4.028e-6, -8.661e-6, -4.633e-6
0.884, -4.051e-6, -8.784e-6, -4.733e-6
0.888, -4.087e-6, -8.914e-6, -4.827e-6
0.892, -4.109e-6, -9.045e-6, -4.936e-6
0.896, -4.151e-6, -9.176e-6, -5.025e-6
0.900, -4.187e-6, -9.304e-6, -5.117e-6
0.904, -4.229e-6, -9.440e-6, -5.211e-6
0.908, -4.256e-6, -9.568e-6, -5.312e-6
0.912, -4.292e-6, -9.706e-6, -5.414e-6
0.916, -4.319e-6, -9.836e-6, -5.517e-6
0.920, -4.370e-6, -9.982e-6, -5.612e-6
0.924, -4.406e-6, -1.012e-5, -5.709e-6
0.928, -4.445e-6, -1.025e-5, -5.802e-6
0.932, -4.479e-6, -1.039e-5, -5.911e-6
0.936, -4.519e-6, -1.053e-5, -6.008e-6
0.940, -4.574e-6, -1.068e-5, -6.104e-6
0.944, -4.613e-6, -1.082e-5, -6.204e-6
0.948, -4.655e-6, -1.096e-5, -6.301e-6
0.952, -4.704e-6, -1.111e-5, -6.402e-6
0.956, -4.747e-6, -1.125e-5, -6.499e-6
0.960, -4.808e-6, -1.141e-5, -6.600e-6
0.964, -4.854e-6, -1.155e-5, -6.698e-6
0.968, -4.901e-6, -1.170e-5, -6.796e-6
0.972, -4.955e-6, -1.185e-5, -6.900e-6
0.976, -5.011e-6, -1.201e-5, -7.001e-6
0.980, -5.077e-6, -1.218e-5, -7.099e-6
0.984, -5.139e-6, -1.234e-5, -7.198e-6
0.988, -5.200e-6, -1.250e-5, -7.299e-6
0.992, -5.260e-6, -1.267e-5, -7.413e-6
0.996, -5.331e-6, -1.284e-5, -7.512e-6
1.000, -5.411e-6, -1.302e-5, -7.608e-6
1.004, -5.479e-6, -1.319e-5, -7.715e-6
1.008, -5.566e-6, -1.338e-5, -7.815e-6
1.012, -5.637e-6, -1.357e-5, -7.934e-6
1.016, -5.719e-6, -1.376e-5, -8.038e-6
1.020, -5.816e-6, -1.395e-5, -8.139e-6
1.024, -5.895e-6, -1.415e-5, -8.251e-6
1.028, -5.999e-6, -1.436e-5, -8.360e-6
1.032, -6.081e-6, -1.455e-5, -8.472e-6
1.036, -6.173e-6, -1.475e-5, -8.580e-6
1.040, -6.261e-6, -1.496e-5, -8.696e-6
1.044, -6.343e-6, -1.515e-5, -8.810e-6
1.048, -6.441e-6, -1.536e-5, -8.917e-6
1.052, -6.517e-6, -1.555e-5, -9.032e-6
1.056, -6.597e-6, -1.574e-5, -9.138e-6
1.060, -6.655e-6, -1.592e-5, -9.263e-6
1.064, -6.727e-6, -1.609e-5, -9.366e-6
1.068, -6.789e-6, -1.626e-5, -9.470e-6
1.072, -6.845e-6, -1.643e-5, -9.581e-6
1.076, -6.914e-6, -1.660e-5, -9.687e-6
1.080, -6.962e-6, -1.676e-5, -9.794e-6
1.084, -7.012e-6, -1.691e-5, -9.897e-6
1.088, -7.071e-6, -1.707e-5, -1.000e-5
1.092, -7.121e-6, -1.723e-5, -1.011e-5
1.096, -7.192e-6, -1.740e-5, -1.021e-5
1.100, -7.239e-6, -1.756e-5, -1.032e-5
1.104, -7.311e-6, -1.773e-5, -1.042e-5
1.108, -7.365e-6, -1.790e-5, -1.053e-5
1.112, -7.441e-6, -1.807e-5, -1.063e-5
1.116, -7.522e-6, -1.826e-5, -1.074e-5
1.120, -7.605e-6, -1.845e-5, -1.085e-5
1.124, -7.703e-6, -1.866e-5, -1.096e-5
1.128, -7.806e-6, -1.888e-5, -1.107e-5
1.132, -7.909e-6, -1.909e-5, -1.118e-5
1.136, -8.023e-6, -1.933e-5, -1.131e-5
1.140, -8.148e-6, -1.957e-5, -1.142e-5
1.144, -8.291e-6, -1.983e-5, -1.154e-5
1.148, -8.418e-6, -2.009e-5, -1.167e-5
1.152, -8.576e-6, -2.036e-5, -1.179e-5
1.156, -8.714e-6, -2.065e-5, -1.193e-5
1.160, -8.891e-6, -2.095e-5, -1.205e-5
1.164, -9.064e-6, -2.125e-5, -1.219e-5
1.168, -9.245e-6, -2.157e-5, -1.233e-5
1.172, -9.446e-6, -2.192e-5, -1.247e-5
1.176, -9.640e-6, -2.226e-5, -1.262e-5
1.180, -9.847e-6, -2.262e-5, -1.277e-5
1.184, -1.007e-5, -2.300e-5, -1.293e-5
1.188, -1.029e-5, -2.338e-5, -1.309e-5
1.192, -1.054e-5, -2.380e-5, -1.326e-5
1.196, -1.077e-5, -2.420e-5, -1.343e-5
1.200, -1.104e-5, -2.464e-5, -1.360e-5
