Feb. 19, 2024   20:05:47
Square Wave Voltammetry
File: c:\users\fu\desktop\noel\2024_02_19_ml1\2024_02_19_cbz00_44.txt
Data Source:  Experiment
Instrument Model:  CHI650E
Header: 
Note: 

Init E (V) = 0.5
Final E (V) = 1.2
Incr E (V) = 0.004
Amplitude (V) = 0.025
Frequency (Hz) = 15
Quiet Time (sec) = 5
Sensitivity (A/V) = 1e-5

Difference:

Forward:

Reverse:

Potential/V, Diff(i/A), For(i/A), Rev(i/A)

0.504, -1.033e-6, -9.739e-7, 5.866e-8
0.508, -9.841e-7, -9.543e-7, 2.976e-8
0.512, -9.402e-7, -9.611e-7, -2.088e-8
0.516, -8.852e-7, -9.661e-7, -8.088e-8
0.520, -8.575e-7, -9.906e-7, -1.330e-7
0.524, -8.397e-7, -1.025e-6, -1.853e-7
0.528, -8.072e-7, -1.051e-6, -2.435e-7
0.532, -8.062e-7, -1.083e-6, -2.764e-7
0.536, -7.520e-7, -1.100e-6, -3.481e-7
0.540, -7.495e-7, -1.145e-6, -3.956e-7
0.544, -7.316e-7, -1.177e-6, -4.457e-7
0.548, -7.155e-7, -1.204e-6, -4.888e-7
0.552, -7.020e-7, -1.243e-6, -5.413e-7
0.556, -7.044e-7, -1.288e-6, -5.841e-7
0.560, -7.064e-7, -1.328e-6, -6.219e-7
0.564, -6.975e-7, -1.365e-6, -6.678e-7
0.568, -7.005e-7, -1.423e-6, -7.221e-7
0.572, -6.926e-7, -1.454e-6, -7.613e-7
0.576, -6.947e-7, -1.496e-6, -8.017e-7
0.580, -6.794e-7, -1.534e-6, -8.542e-7
0.584, -7.173e-7, -1.585e-6, -8.677e-7
0.588, -7.016e-7, -1.625e-6, -9.230e-7
0.592, -7.159e-7, -1.674e-6, -9.581e-7
0.596, -7.246e-7, -1.723e-6, -9.987e-7
0.600, -7.197e-7, -1.757e-6, -1.037e-6
0.604, -7.324e-7, -1.808e-6, -1.075e-6
0.608, -7.095e-7, -1.837e-6, -1.128e-6
0.612, -7.348e-7, -1.887e-6, -1.152e-6
0.616, -7.178e-7, -1.927e-6, -1.209e-6
0.620, -7.498e-7, -1.978e-6, -1.228e-6
0.624, -7.491e-7, -2.021e-6, -1.272e-6
0.628, -7.581e-7, -2.063e-6, -1.305e-6
0.632, -7.644e-7, -2.105e-6, -1.341e-6
0.636, -7.549e-7, -2.131e-6, -1.376e-6
0.640, -7.898e-7, -2.198e-6, -1.408e-6
0.644, -7.714e-7, -2.225e-6, -1.453e-6
0.648, -7.948e-7, -2.272e-6, -1.477e-6
0.652, -7.762e-7, -2.308e-6, -1.532e-6
0.656, -8.120e-7, -2.360e-6, -1.548e-6
0.660, -8.193e-7, -2.406e-6, -1.587e-6
0.664, -8.254e-7, -2.441e-6, -1.615e-6
0.668, -8.592e-7, -2.504e-6, -1.644e-6
0.672, -8.393e-7, -2.522e-6, -1.683e-6
0.676, -8.660e-7, -2.597e-6, -1.731e-6
0.680, -8.565e-7, -2.630e-6, -1.774e-6
0.684, -8.882e-7, -2.680e-6, -1.791e-6
0.688, -8.833e-7, -2.728e-6, -1.845e-6
0.692, -9.117e-7, -2.793e-6, -1.881e-6
0.696, -9.255e-7, -2.839e-6, -1.913e-6
0.700, -9.336e-7, -2.882e-6, -1.948e-6
0.704, -9.776e-7, -2.960e-6, -1.982e-6
0.708, -9.674e-7, -2.991e-6, -2.024e-6
0.712, -1.004e-6, -3.066e-6, -2.062e-6
0.716, -1.005e-6, -3.112e-6, -2.107e-6
0.720, -1.052e-6, -3.179e-6, -2.127e-6
0.724, -1.042e-6, -3.225e-6, -2.183e-6
0.728, -1.078e-6, -3.288e-6, -2.210e-6
0.732, -1.108e-6, -3.359e-6, -2.252e-6
0.736, -1.117e-6, -3.402e-6, -2.285e-6
0.740, -1.151e-6, -3.488e-6, -2.337e-6
0.744, -1.160e-6, -3.539e-6, -2.379e-6
0.748, -1.202e-6, -3.612e-6, -2.410e-6
0.752, -1.199e-6, -3.662e-6, -2.463e-6
0.756, -1.233e-6, -3.738e-6, -2.505e-6
0.760, -1.256e-6, -3.804e-6, -2.548e-6
0.764, -1.285e-6, -3.867e-6, -2.582e-6
0.768, -1.318e-6, -3.958e-6, -2.640e-6
0.772, -1.330e-6, -4.005e-6, -2.675e-6
0.776, -1.372e-6, -4.088e-6, -2.716e-6
0.780, -1.363e-6, -4.141e-6, -2.779e-6
0.784, -1.423e-6, -4.232e-6, -2.809e-6
0.788, -1.440e-6, -4.302e-6, -2.862e-6
0.792, -1.478e-6, -4.381e-6, -2.903e-6
0.796, -1.505e-6, -4.458e-6, -2.953e-6
0.800, -1.530e-6, -4.525e-6, -2.995e-6
0.804, -1.560e-6, -4.613e-6, -3.053e-6
0.808, -1.577e-6, -4.675e-6, -3.098e-6
0.812, -1.625e-6, -4.779e-6, -3.154e-6
0.816, -1.633e-6, -4.847e-6, -3.214e-6
0.820, -1.674e-6, -4.927e-6, -3.253e-6
0.824, -1.685e-6, -5.003e-6, -3.318e-6
0.828, -1.735e-6, -5.096e-6, -3.361e-6
0.832, -1.745e-6, -5.169e-6, -3.424e-6
0.836, -1.800e-6, -5.266e-6, -3.465e-6
0.840, -1.827e-6, -5.357e-6, -3.530e-6
0.844, -1.866e-6, -5.436e-6, -3.571e-6
0.848, -1.904e-6, -5.543e-6, -3.639e-6
0.852, -1.924e-6, -5.618e-6, -3.694e-6
0.856, -1.975e-6, -5.734e-6, -3.759e-6
0.860, -1.994e-6, -5.811e-6, -3.817e-6
0.864, -2.039e-6, -5.919e-6, -3.880e-6
0.868, -2.057e-6, -6.006e-6, -3.949e-6
0.872, -2.119e-6, -6.112e-6, -3.994e-6
0.876, -2.131e-6, -6.201e-6, -4.070e-6
0.880, -2.195e-6, -6.315e-6, -4.120e-6
0.884, -2.236e-6, -6.419e-6, -4.183e-6
0.888, -2.271e-6, -6.520e-6, -4.249e-6
0.892, -2.305e-6, -6.635e-6, -4.330e-6
0.896, -2.350e-6, -6.729e-6, -4.379e-6
0.900, -2.399e-6, -6.846e-6, -4.447e-6
0.904, -2.433e-6, -6.947e-6, -4.514e-6
0.908, -2.492e-6, -7.065e-6, -4.573e-6
0.912, -2.505e-6, -7.164e-6, -4.660e-6
0.916, -2.574e-6, -7.287e-6, -4.713e-6
0.920, -2.599e-6, -7.386e-6, -4.786e-6
0.924, -2.666e-6, -7.519e-6, -4.853e-6
0.928, -2.718e-6, -7.636e-6, -4.918e-6
0.932, -2.757e-6, -7.743e-6, -4.986e-6
0.936, -2.814e-6, -7.878e-6, -5.064e-6
0.940, -2.844e-6, -7.975e-6, -5.131e-6
0.944, -2.915e-6, -8.112e-6, -5.197e-6
0.948, -2.950e-6, -8.227e-6, -5.277e-6
0.952, -3.017e-6, -8.353e-6, -5.336e-6
0.956, -3.041e-6, -8.463e-6, -5.422e-6
0.960, -3.124e-6, -8.604e-6, -5.480e-6
0.964, -3.174e-6, -8.731e-6, -5.557e-6
0.968, -3.234e-6, -8.861e-6, -5.627e-6
0.972, -3.295e-6, -8.998e-6, -5.703e-6
0.976, -3.346e-6, -9.119e-6, -5.774e-6
0.980, -3.406e-6, -9.264e-6, -5.858e-6
0.984, -3.446e-6, -9.387e-6, -5.941e-6
0.988, -3.522e-6, -9.536e-6, -6.014e-6
0.992, -3.560e-6, -9.662e-6, -6.103e-6
0.996, -3.651e-6, -9.818e-6, -6.168e-6
1.000, -3.688e-6, -9.951e-6, -6.263e-6
1.004, -3.770e-6, -1.010e-5, -6.332e-6
1.008, -3.832e-6, -1.025e-5, -6.417e-6
1.012, -3.904e-6, -1.039e-5, -6.488e-6
1.016, -3.982e-6, -1.056e-5, -6.582e-6
1.020, -4.046e-6, -1.070e-5, -6.650e-6
1.024, -4.120e-6, -1.087e-5, -6.750e-6
1.028, -4.174e-6, -1.102e-5, -6.842e-6
1.032, -4.273e-6, -1.119e-5, -6.915e-6
1.036, -4.323e-6, -1.134e-5, -7.016e-6
1.040, -4.425e-6, -1.153e-5, -7.101e-6
1.044, -4.499e-6, -1.170e-5, -7.200e-6
1.048, -4.606e-6, -1.188e-5, -7.278e-6
1.052, -4.693e-6, -1.207e-5, -7.379e-6
1.056, -4.776e-6, -1.224e-5, -7.460e-6
1.060, -4.881e-6, -1.245e-5, -7.572e-6
1.064, -4.967e-6, -1.263e-5, -7.667e-6
1.068, -5.071e-6, -1.284e-5, -7.765e-6
1.072, -5.171e-6, -1.304e-5, -7.874e-6
1.076, -5.302e-6, -1.327e-5, -7.968e-6
1.080, -5.404e-6, -1.349e-5, -8.086e-6
1.084, -5.536e-6, -1.372e-5, -8.187e-6
1.088, -5.672e-6, -1.397e-5, -8.297e-6
1.092, -5.805e-6, -1.421e-5, -8.401e-6
1.096, -5.949e-6, -1.448e-5, -8.531e-6
1.100, -6.087e-6, -1.473e-5, -8.646e-6
1.104, -6.252e-6, -1.503e-5, -8.774e-6
1.108, -6.390e-6, -1.529e-5, -8.901e-6
1.112, -6.584e-6, -1.560e-5, -9.014e-6
1.116, -6.723e-6, -1.589e-5, -9.162e-6
1.120, -6.934e-6, -1.623e-5, -9.293e-6
1.124, -7.132e-6, -1.657e-5, -9.435e-6
1.128, -7.346e-6, -1.692e-5, -9.572e-6
1.132, -7.563e-6, -1.730e-5, -9.734e-6
1.136, -7.790e-6, -1.767e-5, -9.879e-6
1.140, -8.020e-6, -1.809e-5, -1.007e-5
1.144, -8.253e-6, -1.849e-5, -1.023e-5
1.148, -8.541e-6, -1.893e-5, -1.039e-5
1.152, -8.791e-6, -1.938e-5, -1.059e-5
1.156, -9.109e-6, -1.987e-5, -1.076e-5
1.160, -9.399e-6, -2.036e-5, -1.096e-5
1.164, -9.693e-6, -2.087e-5, -1.117e-5
1.168, -1.003e-5, -2.142e-5, -1.139e-5
1.172, -1.035e-5, -2.195e-5, -1.160e-5
1.176, -1.072e-5, -2.255e-5, -1.183e-5
1.180, -1.106e-5, -2.313e-5, -1.207e-5
1.184, -1.144e-5, -2.375e-5, -1.230e-5
1.188, -1.179e-5, -2.437e-5, -1.258e-5
1.192, -1.222e-5, -2.505e-5, -1.283e-5
1.196, -1.260e-5, -2.571e-5, -1.311e-5
1.200, -1.303e-5, -2.642e-5, -1.338e-5
