Feb. 19, 2024   14:00:45
Square Wave Voltammetry
File: c:\users\fu\desktop\noel\2024_02_19_ml1\2024_02_19_cbz08_16.txt
Data Source:  Experiment
Instrument Model:  CHI650E
Header: 
Note: 

Init E (V) = 0.5
Final E (V) = 1.2
Incr E (V) = 0.004
Amplitude (V) = 0.025
Frequency (Hz) = 15
Quiet Time (sec) = 5
Sensitivity (A/V) = 1e-5

Difference:

Forward:

Reverse:

Potential/V, Diff(i/A), For(i/A), Rev(i/A)

0.504, -8.038e-7, -8.157e-7, -1.186e-8
0.508, -7.953e-7, -7.937e-7, 1.618e-9
0.512, -8.003e-7, -7.993e-7, 1.004e-9
0.516, -8.216e-7, -8.248e-7, -3.210e-9
0.520, -8.376e-7, -8.420e-7, -4.426e-9
0.524, -8.567e-7, -8.733e-7, -1.663e-8
0.528, -8.791e-7, -8.973e-7, -1.820e-8
0.532, -8.866e-7, -9.242e-7, -3.766e-8
0.536, -9.163e-7, -9.555e-7, -3.920e-8
0.540, -9.205e-7, -9.805e-7, -6.004e-8
0.544, -9.435e-7, -1.012e-6, -6.889e-8
0.548, -9.660e-7, -1.041e-6, -7.518e-8
0.552, -9.834e-7, -1.071e-6, -8.728e-8
0.556, -1.008e-6, -1.100e-6, -9.266e-8
0.560, -1.016e-6, -1.126e-6, -1.098e-7
0.564, -1.047e-6, -1.160e-6, -1.129e-7
0.568, -1.056e-6, -1.183e-6, -1.275e-7
0.572, -1.080e-6, -1.222e-6, -1.418e-7
0.576, -1.092e-6, -1.246e-6, -1.538e-7
0.580, -1.119e-6, -1.286e-6, -1.668e-7
0.584, -1.134e-6, -1.313e-6, -1.786e-7
0.588, -1.141e-6, -1.334e-6, -1.932e-7
0.592, -1.162e-6, -1.367e-6, -2.045e-7
0.596, -1.179e-6, -1.390e-6, -2.106e-7
0.600, -1.193e-6, -1.424e-6, -2.304e-7
0.604, -1.210e-6, -1.448e-6, -2.378e-7
0.608, -1.218e-6, -1.479e-6, -2.607e-7
0.612, -1.244e-6, -1.508e-6, -2.646e-7
0.616, -1.246e-6, -1.534e-6, -2.884e-7
0.620, -1.264e-6, -1.566e-6, -3.021e-7
0.624, -1.283e-6, -1.590e-6, -3.074e-7
0.628, -1.293e-6, -1.621e-6, -3.281e-7
0.632, -1.310e-6, -1.645e-6, -3.344e-7
0.636, -1.314e-6, -1.670e-6, -3.553e-7
0.640, -1.335e-6, -1.699e-6, -3.639e-7
0.644, -1.342e-6, -1.720e-6, -3.789e-7
0.648, -1.359e-6, -1.758e-6, -3.987e-7
0.652, -1.368e-6, -1.778e-6, -4.096e-7
0.656, -1.388e-6, -1.818e-6, -4.296e-7
0.660, -1.397e-6, -1.841e-6, -4.436e-7
0.664, -1.410e-6, -1.868e-6, -4.585e-7
0.668, -1.424e-6, -1.899e-6, -4.751e-7
0.672, -1.434e-6, -1.925e-6, -4.912e-7
0.676, -1.451e-6, -1.957e-6, -5.067e-7
0.680, -1.464e-6, -1.981e-6, -5.170e-7
0.684, -1.474e-6, -2.018e-6, -5.445e-7
0.688, -1.498e-6, -2.048e-6, -5.498e-7
0.692, -1.501e-6, -2.080e-6, -5.787e-7
0.696, -1.522e-6, -2.115e-6, -5.925e-7
0.700, -1.529e-6, -2.146e-6, -6.165e-7
0.704, -1.551e-6, -2.184e-6, -6.333e-7
0.708, -1.573e-6, -2.213e-6, -6.396e-7
0.712, -1.583e-6, -2.252e-6, -6.688e-7
0.716, -1.603e-6, -2.285e-6, -6.817e-7
0.720, -1.610e-6, -2.316e-6, -7.066e-7
0.724, -1.634e-6, -2.360e-6, -7.260e-7
0.728, -1.640e-6, -2.389e-6, -7.488e-7
0.732, -1.660e-6, -2.435e-6, -7.748e-7
0.736, -1.675e-6, -2.469e-6, -7.943e-7
0.740, -1.692e-6, -2.507e-6, -8.154e-7
0.744, -1.710e-6, -2.547e-6, -8.369e-7
0.748, -1.727e-6, -2.581e-6, -8.537e-7
0.752, -1.744e-6, -2.625e-6, -8.810e-7
0.756, -1.760e-6, -2.660e-6, -8.993e-7
0.760, -1.769e-6, -2.704e-6, -9.343e-7
0.764, -1.793e-6, -2.745e-6, -9.515e-7
0.768, -1.806e-6, -2.787e-6, -9.813e-7
0.772, -1.821e-6, -2.829e-6, -1.009e-6
0.776, -1.840e-6, -2.868e-6, -1.029e-6
0.780, -1.857e-6, -2.917e-6, -1.060e-6
0.784, -1.876e-6, -2.957e-6, -1.081e-6
0.788, -1.885e-6, -2.998e-6, -1.113e-6
0.792, -1.909e-6, -3.046e-6, -1.137e-6
0.796, -1.917e-6, -3.085e-6, -1.168e-6
0.800, -1.945e-6, -3.140e-6, -1.195e-6
0.804, -1.944e-6, -3.176e-6, -1.232e-6
0.808, -1.979e-6, -3.237e-6, -1.258e-6
0.812, -1.985e-6, -3.272e-6, -1.288e-6
0.816, -2.003e-6, -3.325e-6, -1.322e-6
0.820, -2.020e-6, -3.373e-6, -1.353e-6
0.824, -2.034e-6, -3.421e-6, -1.387e-6
0.828, -2.058e-6, -3.476e-6, -1.418e-6
0.832, -2.064e-6, -3.515e-6, -1.451e-6
0.836, -2.084e-6, -3.571e-6, -1.486e-6
0.840, -2.100e-6, -3.614e-6, -1.514e-6
0.844, -2.113e-6, -3.672e-6, -1.559e-6
0.848, -2.137e-6, -3.721e-6, -1.584e-6
0.852, -2.145e-6, -3.778e-6, -1.633e-6
0.856, -2.174e-6, -3.835e-6, -1.662e-6
0.860, -2.176e-6, -3.883e-6, -1.708e-6
0.864, -2.203e-6, -3.945e-6, -1.742e-6
0.868, -2.216e-6, -3.999e-6, -1.783e-6
0.872, -2.238e-6, -4.062e-6, -1.824e-6
0.876, -2.257e-6, -4.113e-6, -1.855e-6
0.880, -2.273e-6, -4.173e-6, -1.900e-6
0.884, -2.294e-6, -4.231e-6, -1.937e-6
0.888, -2.307e-6, -4.286e-6, -1.980e-6
0.892, -2.339e-6, -4.360e-6, -2.021e-6
0.896, -2.348e-6, -4.408e-6, -2.061e-6
0.900, -2.380e-6, -4.484e-6, -2.104e-6
0.904, -2.388e-6, -4.537e-6, -2.148e-6
0.908, -2.418e-6, -4.611e-6, -2.193e-6
0.912, -2.436e-6, -4.669e-6, -2.233e-6
0.916, -2.458e-6, -4.737e-6, -2.279e-6
0.920, -2.484e-6, -4.806e-6, -2.322e-6
0.924, -2.499e-6, -4.866e-6, -2.367e-6
0.928, -2.525e-6, -4.938e-6, -2.413e-6
0.932, -2.544e-6, -4.998e-6, -2.453e-6
0.936, -2.565e-6, -5.073e-6, -2.508e-6
0.940, -2.594e-6, -5.140e-6, -2.547e-6
0.944, -2.609e-6, -5.213e-6, -2.604e-6
0.948, -2.642e-6, -5.290e-6, -2.647e-6
0.952, -2.664e-6, -5.361e-6, -2.696e-6
0.956, -2.687e-6, -5.437e-6, -2.750e-6
0.960, -2.724e-6, -5.510e-6, -2.786e-6
0.964, -2.747e-6, -5.588e-6, -2.841e-6
0.968, -2.785e-6, -5.669e-6, -2.883e-6
0.972, -2.802e-6, -5.743e-6, -2.941e-6
0.976, -2.849e-6, -5.833e-6, -2.985e-6
0.980, -2.867e-6, -5.908e-6, -3.040e-6
0.984, -2.908e-6, -6.002e-6, -3.094e-6
0.988, -2.938e-6, -6.083e-6, -3.145e-6
0.992, -2.982e-6, -6.182e-6, -3.200e-6
0.996, -3.014e-6, -6.268e-6, -3.254e-6
1.000, -3.054e-6, -6.367e-6, -3.312e-6
1.004, -3.098e-6, -6.462e-6, -3.363e-6
1.008, -3.129e-6, -6.554e-6, -3.425e-6
1.012, -3.184e-6, -6.666e-6, -3.482e-6
1.016, -3.226e-6, -6.761e-6, -3.536e-6
1.020, -3.275e-6, -6.874e-6, -3.599e-6
1.024, -3.323e-6, -6.977e-6, -3.654e-6
1.028, -3.374e-6, -7.097e-6, -3.723e-6
1.032, -3.429e-6, -7.209e-6, -3.780e-6
1.036, -3.473e-6, -7.328e-6, -3.855e-6
1.040, -3.537e-6, -7.445e-6, -3.908e-6
1.044, -3.570e-6, -7.558e-6, -3.988e-6
1.048, -3.637e-6, -7.682e-6, -4.045e-6
1.052, -3.672e-6, -7.798e-6, -4.125e-6
1.056, -3.733e-6, -7.917e-6, -4.184e-6
1.060, -3.771e-6, -8.029e-6, -4.258e-6
1.064, -3.818e-6, -8.143e-6, -4.325e-6
1.068, -3.859e-6, -8.249e-6, -4.389e-6
1.072, -3.898e-6, -8.357e-6, -4.459e-6
1.076, -3.936e-6, -8.459e-6, -4.524e-6
1.080, -3.966e-6, -8.563e-6, -4.596e-6
1.084, -4.004e-6, -8.665e-6, -4.660e-6
1.088, -4.036e-6, -8.771e-6, -4.735e-6
1.092, -4.079e-6, -8.883e-6, -4.804e-6
1.096, -4.115e-6, -8.994e-6, -4.879e-6
1.100, -4.162e-6, -9.113e-6, -4.951e-6
1.104, -4.201e-6, -9.232e-6, -5.031e-6
1.108, -4.261e-6, -9.369e-6, -5.108e-6
1.112, -4.313e-6, -9.497e-6, -5.184e-6
1.116, -4.376e-6, -9.641e-6, -5.266e-6
1.120, -4.423e-6, -9.772e-6, -5.349e-6
1.124, -4.494e-6, -9.927e-6, -5.433e-6
1.128, -4.550e-6, -1.007e-5, -5.521e-6
1.132, -4.624e-6, -1.023e-5, -5.610e-6
1.136, -4.687e-6, -1.039e-5, -5.704e-6
1.140, -4.774e-6, -1.057e-5, -5.793e-6
1.144, -4.847e-6, -1.074e-5, -5.888e-6
1.148, -4.933e-6, -1.091e-5, -5.982e-6
1.152, -5.012e-6, -1.109e-5, -6.082e-6
1.156, -5.100e-6, -1.129e-5, -6.186e-6
1.160, -5.186e-6, -1.148e-5, -6.293e-6
1.164, -5.289e-6, -1.168e-5, -6.394e-6
1.168, -5.385e-6, -1.189e-5, -6.505e-6
1.172, -5.493e-6, -1.211e-5, -6.614e-6
1.176, -5.600e-6, -1.233e-5, -6.731e-6
1.180, -5.714e-6, -1.256e-5, -6.844e-6
1.184, -5.831e-6, -1.280e-5, -6.965e-6
1.188, -5.951e-6, -1.304e-5, -7.085e-6
1.192, -6.076e-6, -1.329e-5, -7.216e-6
1.196, -6.208e-6, -1.355e-5, -7.340e-6
1.200, -6.338e-6, -1.382e-5, -7.478e-6
