Feb. 19, 2024   11:08:40
Square Wave Voltammetry
File: c:\users\fu\desktop\noel\2024_02_19_ml1\2024_02_19_cbz16_07.txt
Data Source:  Experiment
Instrument Model:  CHI650E
Header: 
Note: 

Init E (V) = 0.5
Final E (V) = 1.2
Incr E (V) = 0.004
Amplitude (V) = 0.025
Frequency (Hz) = 15
Quiet Time (sec) = 5
Sensitivity (A/V) = 1e-5

Difference:

Forward:

Reverse:

Potential/V, Diff(i/A), For(i/A), Rev(i/A)

0.504, -1.137e-6, -1.209e-6, -7.136e-8
0.508, -1.112e-6, -1.172e-6, -5.965e-8
0.512, -1.141e-6, -1.203e-6, -6.185e-8
0.516, -1.161e-6, -1.235e-6, -7.346e-8
0.520, -1.204e-6, -1.284e-6, -7.981e-8
0.524, -1.225e-6, -1.322e-6, -9.662e-8
0.528, -1.268e-6, -1.377e-6, -1.089e-7
0.532, -1.289e-6, -1.417e-6, -1.273e-7
0.536, -1.337e-6, -1.475e-6, -1.385e-7
0.540, -1.361e-6, -1.519e-6, -1.584e-7
0.544, -1.404e-6, -1.573e-6, -1.692e-7
0.548, -1.427e-6, -1.621e-6, -1.937e-7
0.552, -1.469e-6, -1.678e-6, -2.095e-7
0.556, -1.498e-6, -1.728e-6, -2.304e-7
0.560, -1.541e-6, -1.784e-6, -2.427e-7
0.564, -1.564e-6, -1.830e-6, -2.658e-7
0.568, -1.609e-6, -1.890e-6, -2.807e-7
0.572, -1.634e-6, -1.935e-6, -3.010e-7
0.576, -1.670e-6, -1.991e-6, -3.210e-7
0.580, -1.694e-6, -2.035e-6, -3.414e-7
0.584, -1.725e-6, -2.089e-6, -3.632e-7
0.588, -1.748e-6, -2.130e-6, -3.818e-7
0.592, -1.783e-6, -2.183e-6, -3.999e-7
0.596, -1.798e-6, -2.219e-6, -4.209e-7
0.600, -1.832e-6, -2.270e-6, -4.380e-7
0.604, -1.843e-6, -2.303e-6, -4.600e-7
0.608, -1.876e-6, -2.353e-6, -4.775e-7
0.612, -1.888e-6, -2.386e-6, -4.975e-7
0.616, -1.917e-6, -2.429e-6, -5.124e-7
0.620, -1.925e-6, -2.460e-6, -5.351e-7
0.624, -1.952e-6, -2.502e-6, -5.498e-7
0.628, -1.953e-6, -2.529e-6, -5.764e-7
0.632, -1.977e-6, -2.565e-6, -5.873e-7
0.636, -1.984e-6, -2.595e-6, -6.111e-7
0.640, -2.012e-6, -2.636e-6, -6.243e-7
0.644, -2.011e-6, -2.659e-6, -6.477e-7
0.648, -2.034e-6, -2.698e-6, -6.647e-7
0.652, -2.035e-6, -2.723e-6, -6.880e-7
0.656, -2.064e-6, -2.766e-6, -7.012e-7
0.660, -2.062e-6, -2.789e-6, -7.267e-7
0.664, -2.092e-6, -2.832e-6, -7.397e-7
0.668, -2.090e-6, -2.857e-6, -7.667e-7
0.672, -2.114e-6, -2.893e-6, -7.789e-7
0.676, -2.118e-6, -2.925e-6, -8.075e-7
0.680, -2.144e-6, -2.966e-6, -8.219e-7
0.684, -2.148e-6, -2.996e-6, -8.481e-7
0.688, -2.171e-6, -3.038e-6, -8.673e-7
0.692, -2.180e-6, -3.072e-6, -8.919e-7
0.696, -2.207e-6, -3.116e-6, -9.086e-7
0.700, -2.210e-6, -3.149e-6, -9.393e-7
0.704, -2.232e-6, -3.189e-6, -9.575e-7
0.708, -2.240e-6, -3.227e-6, -9.866e-7
0.712, -2.269e-6, -3.275e-6, -1.006e-6
0.716, -2.279e-6, -3.312e-6, -1.033e-6
0.720, -2.299e-6, -3.359e-6, -1.060e-6
0.724, -2.317e-6, -3.402e-6, -1.085e-6
0.728, -2.334e-6, -3.447e-6, -1.113e-6
0.732, -2.357e-6, -3.493e-6, -1.137e-6
0.736, -2.374e-6, -3.538e-6, -1.165e-6
0.740, -2.392e-6, -3.586e-6, -1.193e-6
0.744, -2.414e-6, -3.636e-6, -1.222e-6
0.748, -2.433e-6, -3.684e-6, -1.251e-6
0.752, -2.459e-6, -3.736e-6, -1.278e-6
0.756, -2.474e-6, -3.785e-6, -1.312e-6
0.760, -2.494e-6, -3.834e-6, -1.340e-6
0.764, -2.507e-6, -3.883e-6, -1.376e-6
0.768, -2.531e-6, -3.936e-6, -1.405e-6
0.772, -2.548e-6, -3.987e-6, -1.439e-6
0.776, -2.570e-6, -4.043e-6, -1.473e-6
0.780, -2.589e-6, -4.093e-6, -1.504e-6
0.784, -2.615e-6, -4.153e-6, -1.538e-6
0.788, -2.637e-6, -4.208e-6, -1.571e-6
0.792, -2.654e-6, -4.265e-6, -1.611e-6
0.796, -2.671e-6, -4.321e-6, -1.650e-6
0.800, -2.694e-6, -4.379e-6, -1.686e-6
0.804, -2.710e-6, -4.438e-6, -1.728e-6
0.808, -2.733e-6, -4.496e-6, -1.763e-6
0.812, -2.753e-6, -4.556e-6, -1.803e-6
0.816, -2.781e-6, -4.623e-6, -1.842e-6
0.820, -2.803e-6, -4.683e-6, -1.880e-6
0.824, -2.820e-6, -4.749e-6, -1.929e-6
0.828, -2.841e-6, -4.811e-6, -1.970e-6
0.832, -2.862e-6, -4.877e-6, -2.015e-6
0.836, -2.888e-6, -4.944e-6, -2.056e-6
0.840, -2.907e-6, -5.014e-6, -2.107e-6
0.844, -2.930e-6, -5.080e-6, -2.150e-6
0.848, -2.955e-6, -5.151e-6, -2.196e-6
0.852, -2.984e-6, -5.222e-6, -2.239e-6
0.856, -3.005e-6, -5.297e-6, -2.292e-6
0.860, -3.025e-6, -5.364e-6, -2.339e-6
0.864, -3.054e-6, -5.445e-6, -2.391e-6
0.868, -3.085e-6, -5.523e-6, -2.438e-6
0.872, -3.105e-6, -5.602e-6, -2.497e-6
0.876, -3.133e-6, -5.675e-6, -2.543e-6
0.880, -3.164e-6, -5.761e-6, -2.597e-6
0.884, -3.196e-6, -5.843e-6, -2.647e-6
0.888, -3.222e-6, -5.928e-6, -2.707e-6
0.892, -3.252e-6, -6.011e-6, -2.759e-6
0.896, -3.284e-6, -6.095e-6, -2.811e-6
0.900, -3.319e-6, -6.185e-6, -2.866e-6
0.904, -3.353e-6, -6.272e-6, -2.919e-6
0.908, -3.378e-6, -6.359e-6, -2.980e-6
0.912, -3.414e-6, -6.448e-6, -3.034e-6
0.916, -3.443e-6, -6.536e-6, -3.093e-6
0.920, -3.483e-6, -6.634e-6, -3.151e-6
0.924, -3.509e-6, -6.726e-6, -3.217e-6
0.928, -3.559e-6, -6.828e-6, -3.269e-6
0.932, -3.582e-6, -6.918e-6, -3.336e-6
0.936, -3.629e-6, -7.022e-6, -3.392e-6
0.940, -3.658e-6, -7.115e-6, -3.456e-6
0.944, -3.715e-6, -7.230e-6, -3.515e-6
0.948, -3.745e-6, -7.326e-6, -3.581e-6
0.952, -3.795e-6, -7.436e-6, -3.641e-6
0.956, -3.828e-6, -7.538e-6, -3.709e-6
0.960, -3.889e-6, -7.657e-6, -3.768e-6
0.964, -3.920e-6, -7.760e-6, -3.840e-6
0.968, -3.976e-6, -7.881e-6, -3.904e-6
0.972, -4.017e-6, -7.993e-6, -3.975e-6
0.976, -4.081e-6, -8.118e-6, -4.038e-6
0.980, -4.120e-6, -8.233e-6, -4.113e-6
0.984, -4.181e-6, -8.364e-6, -4.183e-6
0.988, -4.230e-6, -8.485e-6, -4.255e-6
0.992, -4.298e-6, -8.621e-6, -4.324e-6
0.996, -4.354e-6, -8.754e-6, -4.400e-6
1.000, -4.428e-6, -8.902e-6, -4.474e-6
1.004, -4.494e-6, -9.045e-6, -4.551e-6
1.008, -4.568e-6, -9.199e-6, -4.631e-6
1.012, -4.633e-6, -9.347e-6, -4.714e-6
1.016, -4.729e-6, -9.518e-6, -4.789e-6
1.020, -4.808e-6, -9.684e-6, -4.875e-6
1.024, -4.901e-6, -9.861e-6, -4.960e-6
1.028, -4.982e-6, -1.004e-5, -5.053e-6
1.032, -5.093e-6, -1.023e-5, -5.137e-6
1.036, -5.178e-6, -1.041e-5, -5.237e-6
1.040, -5.292e-6, -1.062e-5, -5.323e-6
1.044, -5.378e-6, -1.081e-5, -5.427e-6
1.048, -5.490e-6, -1.101e-5, -5.523e-6
1.052, -5.584e-6, -1.121e-5, -5.624e-6
1.056, -5.688e-6, -1.141e-5, -5.721e-6
1.060, -5.776e-6, -1.160e-5, -5.824e-6
1.064, -5.866e-6, -1.179e-5, -5.924e-6
1.068, -5.943e-6, -1.197e-5, -6.025e-6
1.072, -6.026e-6, -1.215e-5, -6.120e-6
1.076, -6.099e-6, -1.231e-5, -6.214e-6
1.080, -6.157e-6, -1.248e-5, -6.320e-6
1.084, -6.227e-6, -1.264e-5, -6.409e-6
1.088, -6.290e-6, -1.280e-5, -6.510e-6
1.092, -6.360e-6, -1.296e-5, -6.601e-6
1.096, -6.426e-6, -1.314e-5, -6.710e-6
1.100, -6.508e-6, -1.331e-5, -6.803e-6
1.104, -6.596e-6, -1.351e-5, -6.916e-6
1.108, -6.694e-6, -1.372e-5, -7.022e-6
1.112, -6.797e-6, -1.394e-5, -7.144e-6
1.116, -6.921e-6, -1.418e-5, -7.257e-6
1.120, -7.049e-6, -1.444e-5, -7.387e-6
1.124, -7.184e-6, -1.470e-5, -7.515e-6
1.128, -7.334e-6, -1.498e-5, -7.648e-6
1.132, -7.487e-6, -1.527e-5, -7.784e-6
1.136, -7.661e-6, -1.558e-5, -7.924e-6
1.140, -7.839e-6, -1.591e-5, -8.073e-6
1.144, -8.026e-6, -1.625e-5, -8.222e-6
1.148, -8.223e-6, -1.661e-5, -8.383e-6
1.152, -8.435e-6, -1.698e-5, -8.545e-6
1.156, -8.657e-6, -1.737e-5, -8.714e-6
1.160, -8.879e-6, -1.777e-5, -8.891e-6
1.164, -9.139e-6, -1.820e-5, -9.065e-6
1.168, -9.377e-6, -1.865e-5, -9.271e-6
1.172, -9.663e-6, -1.912e-5, -9.453e-6
1.176, -9.941e-6, -1.960e-5, -9.657e-6
1.180, -1.025e-5, -2.011e-5, -9.859e-6
1.184, -1.056e-5, -2.065e-5, -1.008e-5
1.188, -1.089e-5, -2.120e-5, -1.031e-5
1.192, -1.125e-5, -2.179e-5, -1.054e-5
1.196, -1.161e-5, -2.239e-5, -1.079e-5
1.200, -1.199e-5, -2.302e-5, -1.104e-5
