Feb. 19, 2024   19:19:20
Square Wave Voltammetry
File: c:\users\fu\desktop\noel\2024_02_19_ml1\2024_02_19_cbz08_44.txt
Data Source:  Experiment
Instrument Model:  CHI650E
Header: 
Note: 

Init E (V) = 0.5
Final E (V) = 1.2
Incr E (V) = 0.004
Amplitude (V) = 0.025
Frequency (Hz) = 15
Quiet Time (sec) = 5
Sensitivity (A/V) = 1e-5

Difference:

Forward:

Reverse:

Potential/V, Diff(i/A), For(i/A), Rev(i/A)

0.504, -1.037e-6, -1.218e-6, -1.809e-7
0.508, -1.030e-6, -1.191e-6, -1.615e-7
0.512, -1.037e-6, -1.215e-6, -1.776e-7
0.516, -1.063e-6, -1.250e-6, -1.863e-7
0.520, -1.091e-6, -1.285e-6, -1.934e-7
0.524, -1.107e-6, -1.316e-6, -2.088e-7
0.528, -1.142e-6, -1.371e-6, -2.290e-7
0.532, -1.165e-6, -1.407e-6, -2.426e-7
0.536, -1.189e-6, -1.440e-6, -2.508e-7
0.540, -1.201e-6, -1.483e-6, -2.824e-7
0.544, -1.233e-6, -1.529e-6, -2.954e-7
0.548, -1.259e-6, -1.567e-6, -3.080e-7
0.552, -1.276e-6, -1.607e-6, -3.303e-7
0.556, -1.313e-6, -1.659e-6, -3.459e-7
0.560, -1.334e-6, -1.698e-6, -3.648e-7
0.564, -1.355e-6, -1.739e-6, -3.843e-7
0.568, -1.379e-6, -1.786e-6, -4.064e-7
0.572, -1.410e-6, -1.825e-6, -4.150e-7
0.576, -1.420e-6, -1.866e-6, -4.453e-7
0.580, -1.448e-6, -1.912e-6, -4.641e-7
0.584, -1.470e-6, -1.951e-6, -4.813e-7
0.588, -1.484e-6, -1.985e-6, -5.011e-7
0.592, -1.518e-6, -2.040e-6, -5.218e-7
0.596, -1.539e-6, -2.078e-6, -5.394e-7
0.600, -1.559e-6, -2.110e-6, -5.514e-7
0.604, -1.562e-6, -2.151e-6, -5.887e-7
0.608, -1.591e-6, -2.195e-6, -6.042e-7
0.612, -1.612e-6, -2.232e-6, -6.202e-7
0.616, -1.624e-6, -2.269e-6, -6.445e-7
0.620, -1.650e-6, -2.316e-6, -6.666e-7
0.624, -1.669e-6, -2.354e-6, -6.853e-7
0.628, -1.690e-6, -2.394e-6, -7.040e-7
0.632, -1.697e-6, -2.433e-6, -7.365e-7
0.636, -1.723e-6, -2.473e-6, -7.496e-7
0.640, -1.738e-6, -2.512e-6, -7.739e-7
0.644, -1.754e-6, -2.551e-6, -7.972e-7
0.648, -1.783e-6, -2.600e-6, -8.174e-7
0.652, -1.792e-6, -2.633e-6, -8.410e-7
0.656, -1.816e-6, -2.679e-6, -8.634e-7
0.660, -1.829e-6, -2.720e-6, -8.908e-7
0.664, -1.857e-6, -2.761e-6, -9.044e-7
0.668, -1.866e-6, -2.806e-6, -9.405e-7
0.672, -1.893e-6, -2.854e-6, -9.608e-7
0.676, -1.919e-6, -2.899e-6, -9.798e-7
0.680, -1.927e-6, -2.936e-6, -1.009e-6
0.684, -1.954e-6, -2.993e-6, -1.040e-6
0.688, -1.976e-6, -3.040e-6, -1.064e-6
0.692, -1.993e-6, -3.076e-6, -1.083e-6
0.696, -2.006e-6, -3.132e-6, -1.126e-6
0.700, -2.031e-6, -3.181e-6, -1.150e-6
0.704, -2.063e-6, -3.231e-6, -1.168e-6
0.708, -2.076e-6, -3.277e-6, -1.201e-6
0.712, -2.108e-6, -3.341e-6, -1.233e-6
0.716, -2.126e-6, -3.389e-6, -1.263e-6
0.720, -2.151e-6, -3.437e-6, -1.286e-6
0.724, -2.161e-6, -3.495e-6, -1.334e-6
0.728, -2.187e-6, -3.550e-6, -1.363e-6
0.732, -2.213e-6, -3.600e-6, -1.387e-6
0.736, -2.229e-6, -3.653e-6, -1.424e-6
0.740, -2.262e-6, -3.722e-6, -1.459e-6
0.744, -2.281e-6, -3.775e-6, -1.494e-6
0.748, -2.303e-6, -3.825e-6, -1.522e-6
0.752, -2.324e-6, -3.891e-6, -1.568e-6
0.756, -2.352e-6, -3.950e-6, -1.598e-6
0.760, -2.374e-6, -4.007e-6, -1.634e-6
0.764, -2.392e-6, -4.067e-6, -1.676e-6
0.768, -2.426e-6, -4.138e-6, -1.712e-6
0.772, -2.437e-6, -4.189e-6, -1.752e-6
0.776, -2.469e-6, -4.263e-6, -1.794e-6
0.780, -2.495e-6, -4.328e-6, -1.834e-6
0.784, -2.519e-6, -4.387e-6, -1.869e-6
0.788, -2.533e-6, -4.459e-6, -1.926e-6
0.792, -2.568e-6, -4.528e-6, -1.961e-6
0.796, -2.588e-6, -4.594e-6, -2.007e-6
0.800, -2.610e-6, -4.663e-6, -2.053e-6
0.804, -2.648e-6, -4.738e-6, -2.091e-6
0.808, -2.659e-6, -4.800e-6, -2.142e-6
0.812, -2.693e-6, -4.888e-6, -2.195e-6
0.816, -2.718e-6, -4.956e-6, -2.239e-6
0.820, -2.739e-6, -5.030e-6, -2.291e-6
0.824, -2.766e-6, -5.106e-6, -2.340e-6
0.828, -2.792e-6, -5.175e-6, -2.383e-6
0.832, -2.802e-6, -5.254e-6, -2.452e-6
0.836, -2.841e-6, -5.341e-6, -2.500e-6
0.840, -2.862e-6, -5.420e-6, -2.557e-6
0.844, -2.893e-6, -5.503e-6, -2.610e-6
0.848, -2.923e-6, -5.587e-6, -2.664e-6
0.852, -2.942e-6, -5.665e-6, -2.723e-6
0.856, -2.986e-6, -5.762e-6, -2.776e-6
0.860, -3.001e-6, -5.837e-6, -2.836e-6
0.864, -3.036e-6, -5.937e-6, -2.900e-6
0.868, -3.067e-6, -6.025e-6, -2.958e-6
0.872, -3.091e-6, -6.112e-6, -3.021e-6
0.876, -3.123e-6, -6.208e-6, -3.086e-6
0.880, -3.155e-6, -6.296e-6, -3.141e-6
0.884, -3.180e-6, -6.397e-6, -3.217e-6
0.888, -3.215e-6, -6.491e-6, -3.276e-6
0.892, -3.255e-6, -6.589e-6, -3.333e-6
0.896, -3.276e-6, -6.684e-6, -3.407e-6
0.900, -3.320e-6, -6.791e-6, -3.472e-6
0.904, -3.343e-6, -6.882e-6, -3.539e-6
0.908, -3.386e-6, -6.996e-6, -3.610e-6
0.912, -3.419e-6, -7.098e-6, -3.679e-6
0.916, -3.455e-6, -7.194e-6, -3.739e-6
0.920, -3.483e-6, -7.302e-6, -3.819e-6
0.924, -3.519e-6, -7.408e-6, -3.889e-6
0.928, -3.552e-6, -7.515e-6, -3.963e-6
0.932, -3.591e-6, -7.628e-6, -4.037e-6
0.936, -3.641e-6, -7.741e-6, -4.100e-6
0.940, -3.664e-6, -7.844e-6, -4.179e-6
0.944, -3.714e-6, -7.970e-6, -4.257e-6
0.948, -3.746e-6, -8.077e-6, -4.331e-6
0.952, -3.792e-6, -8.193e-6, -4.400e-6
0.956, -3.831e-6, -8.316e-6, -4.485e-6
0.960, -3.871e-6, -8.426e-6, -4.555e-6
0.964, -3.910e-6, -8.550e-6, -4.640e-6
0.968, -3.957e-6, -8.676e-6, -4.720e-6
0.972, -4.005e-6, -8.798e-6, -4.793e-6
0.976, -4.043e-6, -8.918e-6, -4.876e-6
0.980, -4.101e-6, -9.060e-6, -4.959e-6
0.984, -4.145e-6, -9.186e-6, -5.041e-6
0.988, -4.190e-6, -9.314e-6, -5.125e-6
0.992, -4.247e-6, -9.455e-6, -5.209e-6
0.996, -4.301e-6, -9.588e-6, -5.288e-6
1.000, -4.349e-6, -9.734e-6, -5.385e-6
1.004, -4.406e-6, -9.880e-6, -5.474e-6
1.008, -4.474e-6, -1.003e-5, -5.555e-6
1.012, -4.523e-6, -1.017e-5, -5.649e-6
1.016, -4.604e-6, -1.034e-5, -5.741e-6
1.020, -4.665e-6, -1.050e-5, -5.835e-6
1.024, -4.734e-6, -1.067e-5, -5.931e-6
1.028, -4.802e-6, -1.083e-5, -6.028e-6
1.032, -4.881e-6, -1.100e-5, -6.117e-6
1.036, -4.950e-6, -1.118e-5, -6.226e-6
1.040, -5.031e-6, -1.136e-5, -6.326e-6
1.044, -5.110e-6, -1.153e-5, -6.421e-6
1.048, -5.186e-6, -1.171e-5, -6.528e-6
1.052, -5.274e-6, -1.191e-5, -6.637e-6
1.056, -5.355e-6, -1.210e-5, -6.741e-6
1.060, -5.432e-6, -1.227e-5, -6.842e-6
1.064, -5.508e-6, -1.247e-5, -6.963e-6
1.068, -5.589e-6, -1.266e-5, -7.070e-6
1.072, -5.672e-6, -1.285e-5, -7.175e-6
1.076, -5.747e-6, -1.304e-5, -7.292e-6
1.080, -5.843e-6, -1.324e-5, -7.401e-6
1.084, -5.916e-6, -1.343e-5, -7.518e-6
1.088, -6.016e-6, -1.365e-5, -7.639e-6
1.092, -6.112e-6, -1.387e-5, -7.758e-6
1.096, -6.209e-6, -1.408e-5, -7.875e-6
1.100, -6.304e-6, -1.431e-5, -8.009e-6
1.104, -6.425e-6, -1.455e-5, -8.126e-6
1.108, -6.531e-6, -1.480e-5, -8.272e-6
1.112, -6.669e-6, -1.507e-5, -8.403e-6
1.116, -6.797e-6, -1.534e-5, -8.540e-6
1.120, -6.941e-6, -1.562e-5, -8.683e-6
1.124, -7.098e-6, -1.593e-5, -8.832e-6
1.128, -7.256e-6, -1.624e-5, -8.982e-6
1.132, -7.414e-6, -1.656e-5, -9.143e-6
1.136, -7.603e-6, -1.690e-5, -9.301e-6
1.140, -7.787e-6, -1.725e-5, -9.462e-6
1.144, -7.975e-6, -1.763e-5, -9.651e-6
1.148, -8.182e-6, -1.801e-5, -9.824e-6
1.152, -8.400e-6, -1.841e-5, -1.001e-5
1.156, -8.620e-6, -1.882e-5, -1.020e-5
1.160, -8.859e-6, -1.925e-5, -1.039e-5
1.164, -9.088e-6, -1.968e-5, -1.060e-5
1.168, -9.350e-6, -2.015e-5, -1.080e-5
1.172, -9.602e-6, -2.062e-5, -1.102e-5
1.176, -9.866e-6, -2.111e-5, -1.124e-5
1.180, -1.013e-5, -2.161e-5, -1.147e-5
1.184, -1.042e-5, -2.212e-5, -1.170e-5
1.188, -1.069e-5, -2.265e-5, -1.196e-5
1.192, -1.100e-5, -2.320e-5, -1.220e-5
1.196, -1.129e-5, -2.374e-5, -1.245e-5
1.200, -1.158e-5, -2.430e-5, -1.272e-5
