Feb. 19, 2024   14:51:14
Square Wave Voltammetry
File: c:\users\fu\desktop\noel\2024_02_19_ml1\2024_02_19_cbz00_21.txt
Data Source:  Experiment
Instrument Model:  CHI650E
Header: 
Note: 

Init E (V) = 0.5
Final E (V) = 1.2
Incr E (V) = 0.004
Amplitude (V) = 0.025
Frequency (Hz) = 15
Quiet Time (sec) = 5
Sensitivity (A/V) = 1e-5

Difference:

Forward:

Reverse:

Potential/V, Diff(i/A), For(i/A), Rev(i/A)

0.504, -1.126e-6, -1.315e-6, -1.893e-7
0.508, -1.158e-6, -1.313e-6, -1.556e-7
0.512, -1.136e-6, -1.312e-6, -1.765e-7
0.516, -1.211e-6, -1.385e-6, -1.741e-7
0.520, -1.193e-6, -1.389e-6, -1.961e-7
0.524, -1.266e-6, -1.475e-6, -2.086e-7
0.528, -1.260e-6, -1.478e-6, -2.179e-7
0.532, -1.324e-6, -1.569e-6, -2.451e-7
0.536, -1.324e-6, -1.574e-6, -2.502e-7
0.540, -1.374e-6, -1.659e-6, -2.851e-7
0.544, -1.399e-6, -1.677e-6, -2.777e-7
0.548, -1.434e-6, -1.754e-6, -3.205e-7
0.552, -1.467e-6, -1.785e-6, -3.180e-7
0.556, -1.477e-6, -1.837e-6, -3.608e-7
0.560, -1.540e-6, -1.899e-6, -3.590e-7
0.564, -1.529e-6, -1.923e-6, -3.941e-7
0.568, -1.590e-6, -1.995e-6, -4.050e-7
0.572, -1.584e-6, -2.009e-6, -4.252e-7
0.576, -1.639e-6, -2.092e-6, -4.530e-7
0.580, -1.659e-6, -2.110e-6, -4.505e-7
0.584, -1.668e-6, -2.177e-6, -5.090e-7
0.588, -1.720e-6, -2.213e-6, -4.926e-7
0.592, -1.711e-6, -2.254e-6, -5.432e-7
0.596, -1.765e-6, -2.331e-6, -5.656e-7
0.600, -1.788e-6, -2.358e-6, -5.706e-7
0.604, -1.810e-6, -2.433e-6, -6.234e-7
0.608, -1.862e-6, -2.472e-6, -6.094e-7
0.612, -1.857e-6, -2.518e-6, -6.612e-7
0.616, -1.928e-6, -2.591e-6, -6.623e-7
0.620, -1.911e-6, -2.607e-6, -6.963e-7
0.624, -1.974e-6, -2.703e-6, -7.286e-7
0.628, -1.987e-6, -2.725e-6, -7.375e-7
0.632, -2.019e-6, -2.801e-6, -7.818e-7
0.636, -2.067e-6, -2.861e-6, -7.945e-7
0.640, -2.065e-6, -2.898e-6, -8.329e-7
0.644, -2.130e-6, -2.990e-6, -8.606e-7
0.648, -2.148e-6, -3.015e-6, -8.670e-7
0.652, -2.168e-6, -3.096e-6, -9.278e-7
0.656, -2.227e-6, -3.147e-6, -9.194e-7
0.660, -2.224e-6, -3.211e-6, -9.867e-7
0.664, -2.294e-6, -3.287e-6, -9.933e-7
0.668, -2.299e-6, -3.336e-6, -1.037e-6
0.672, -2.347e-6, -3.425e-6, -1.078e-6
0.676, -2.388e-6, -3.471e-6, -1.083e-6
0.680, -2.406e-6, -3.557e-6, -1.151e-6
0.684, -2.472e-6, -3.623e-6, -1.150e-6
0.688, -2.472e-6, -3.681e-6, -1.209e-6
0.692, -2.548e-6, -3.777e-6, -1.229e-6
0.696, -2.553e-6, -3.814e-6, -1.262e-6
0.700, -2.612e-6, -3.926e-6, -1.314e-6
0.704, -2.648e-6, -3.979e-6, -1.331e-6
0.708, -2.676e-6, -4.064e-6, -1.387e-6
0.712, -2.738e-6, -4.149e-6, -1.412e-6
0.716, -2.741e-6, -4.202e-6, -1.461e-6
0.720, -2.799e-6, -4.311e-6, -1.512e-6
0.724, -2.838e-6, -4.359e-6, -1.520e-6
0.728, -2.849e-6, -4.454e-6, -1.604e-6
0.732, -2.910e-6, -4.524e-6, -1.614e-6
0.736, -2.922e-6, -4.598e-6, -1.676e-6
0.740, -2.970e-6, -4.699e-6, -1.728e-6
0.744, -3.021e-6, -4.767e-6, -1.746e-6
0.748, -3.029e-6, -4.862e-6, -1.833e-6
0.752, -3.099e-6, -4.945e-6, -1.846e-6
0.756, -3.093e-6, -5.006e-6, -1.914e-6
0.760, -3.176e-6, -5.131e-6, -1.955e-6
0.764, -3.174e-6, -5.177e-6, -2.003e-6
0.768, -3.220e-6, -5.294e-6, -2.074e-6
0.772, -3.270e-6, -5.378e-6, -2.108e-6
0.776, -3.271e-6, -5.448e-6, -2.178e-6
0.780, -3.343e-6, -5.568e-6, -2.225e-6
0.784, -3.341e-6, -5.621e-6, -2.281e-6
0.788, -3.388e-6, -5.739e-6, -2.351e-6
0.792, -3.423e-6, -5.804e-6, -2.381e-6
0.796, -3.428e-6, -5.913e-6, -2.485e-6
0.800, -3.492e-6, -5.995e-6, -2.504e-6
0.804, -3.488e-6, -6.095e-6, -2.607e-6
0.808, -3.556e-6, -6.203e-6, -2.647e-6
0.812, -3.552e-6, -6.277e-6, -2.725e-6
0.816, -3.599e-6, -6.399e-6, -2.799e-6
0.820, -3.628e-6, -6.479e-6, -2.852e-6
0.824, -3.643e-6, -6.590e-6, -2.947e-6
0.828, -3.704e-6, -6.681e-6, -2.976e-6
0.832, -3.701e-6, -6.792e-6, -3.091e-6
0.836, -3.771e-6, -6.899e-6, -3.128e-6
0.840, -3.754e-6, -6.985e-6, -3.231e-6
0.844, -3.831e-6, -7.117e-6, -3.286e-6
0.848, -3.813e-6, -7.193e-6, -3.381e-6
0.852, -3.887e-6, -7.332e-6, -3.445e-6
0.856, -3.878e-6, -7.405e-6, -3.527e-6
0.860, -3.945e-6, -7.560e-6, -3.614e-6
0.864, -3.947e-6, -7.635e-6, -3.688e-6
0.868, -4.003e-6, -7.789e-6, -3.787e-6
0.872, -4.014e-6, -7.870e-6, -3.856e-6
0.876, -4.076e-6, -8.025e-6, -3.949e-6
0.880, -4.087e-6, -8.108e-6, -4.021e-6
0.884, -4.143e-6, -8.267e-6, -4.124e-6
0.888, -4.161e-6, -8.357e-6, -4.196e-6
0.892, -4.191e-6, -8.499e-6, -4.308e-6
0.896, -4.226e-6, -8.600e-6, -4.374e-6
0.900, -4.278e-6, -8.755e-6, -4.477e-6
0.904, -4.306e-6, -8.860e-6, -4.554e-6
0.908, -4.336e-6, -9.002e-6, -4.666e-6
0.912, -4.391e-6, -9.125e-6, -4.734e-6
0.916, -4.420e-6, -9.268e-6, -4.848e-6
0.920, -4.465e-6, -9.386e-6, -4.922e-6
0.924, -4.514e-6, -9.537e-6, -5.023e-6
0.928, -4.552e-6, -9.660e-6, -5.108e-6
0.932, -4.592e-6, -9.810e-6, -5.218e-6
0.936, -4.646e-6, -9.935e-6, -5.289e-6
0.940, -4.671e-6, -1.008e-5, -5.404e-6
0.944, -4.734e-6, -1.021e-5, -5.474e-6
0.948, -4.764e-6, -1.035e-5, -5.589e-6
0.952, -4.831e-6, -1.049e-5, -5.660e-6
0.956, -4.851e-6, -1.063e-5, -5.782e-6
0.960, -4.926e-6, -1.077e-5, -5.846e-6
0.964, -4.942e-6, -1.091e-5, -5.965e-6
0.968, -5.025e-6, -1.106e-5, -6.033e-6
0.972, -5.038e-6, -1.119e-5, -6.155e-6
0.976, -5.124e-6, -1.135e-5, -6.225e-6
0.980, -5.140e-6, -1.148e-5, -6.342e-6
0.984, -5.222e-6, -1.164e-5, -6.419e-6
0.988, -5.241e-6, -1.177e-5, -6.533e-6
0.992, -5.330e-6, -1.194e-5, -6.609e-6
0.996, -5.348e-6, -1.208e-5, -6.728e-6
1.000, -5.437e-6, -1.224e-5, -6.799e-6
1.004, -5.459e-6, -1.237e-5, -6.916e-6
1.008, -5.543e-6, -1.254e-5, -6.994e-6
1.012, -5.568e-6, -1.267e-5, -7.101e-6
1.016, -5.653e-6, -1.284e-5, -7.189e-6
1.020, -5.691e-6, -1.298e-5, -7.285e-6
1.024, -5.765e-6, -1.314e-5, -7.377e-6
1.028, -5.790e-6, -1.328e-5, -7.485e-6
1.032, -5.880e-6, -1.345e-5, -7.573e-6
1.036, -5.905e-6, -1.358e-5, -7.678e-6
1.040, -6.006e-6, -1.377e-5, -7.764e-6
1.044, -6.014e-6, -1.389e-5, -7.875e-6
1.048, -6.124e-6, -1.409e-5, -7.961e-6
1.052, -6.154e-6, -1.421e-5, -8.061e-6
1.056, -6.246e-6, -1.441e-5, -8.163e-6
1.060, -6.295e-6, -1.454e-5, -8.248e-6
1.064, -6.382e-6, -1.475e-5, -8.364e-6
1.068, -6.432e-6, -1.488e-5, -8.446e-6
1.072, -6.536e-6, -1.509e-5, -8.557e-6
1.076, -6.588e-6, -1.524e-5, -8.649e-6
1.080, -6.681e-6, -1.545e-5, -8.767e-6
1.084, -6.746e-6, -1.560e-5, -8.851e-6
1.088, -6.853e-6, -1.582e-5, -8.965e-6
1.092, -6.926e-6, -1.599e-5, -9.059e-6
1.096, -7.036e-6, -1.621e-5, -9.177e-6
1.100, -7.120e-6, -1.638e-5, -9.264e-6
1.104, -7.238e-6, -1.663e-5, -9.388e-6
1.108, -7.331e-6, -1.681e-5, -9.480e-6
1.112, -7.457e-6, -1.706e-5, -9.605e-6
1.116, -7.564e-6, -1.727e-5, -9.702e-6
1.120, -7.697e-6, -1.753e-5, -9.834e-6
1.124, -7.830e-6, -1.776e-5, -9.928e-6
1.128, -7.961e-6, -1.804e-5, -1.008e-5
1.132, -8.112e-6, -1.828e-5, -1.017e-5
1.136, -8.268e-6, -1.859e-5, -1.032e-5
1.140, -8.444e-6, -1.887e-5, -1.042e-5
1.144, -8.595e-6, -1.918e-5, -1.059e-5
1.148, -8.799e-6, -1.948e-5, -1.068e-5
1.152, -8.966e-6, -1.982e-5, -1.086e-5
1.156, -9.193e-6, -2.016e-5, -1.096e-5
1.160, -9.375e-6, -2.053e-5, -1.115e-5
1.164, -9.625e-6, -2.089e-5, -1.127e-5
1.168, -9.823e-6, -2.128e-5, -1.146e-5
1.172, -1.010e-5, -2.168e-5, -1.158e-5
1.176, -1.031e-5, -2.209e-5, -1.178e-5
1.180, -1.059e-5, -2.253e-5, -1.194e-5
1.184, -1.084e-5, -2.297e-5, -1.213e-5
1.188, -1.113e-5, -2.344e-5, -1.231e-5
1.192, -1.140e-5, -2.390e-5, -1.249e-5
1.196, -1.168e-5, -2.440e-5, -1.272e-5
1.200, -1.201e-5, -2.490e-5, -1.289e-5
