Feb. 19, 2024   13:14:20
Square Wave Voltammetry
File: c:\users\fu\desktop\noel\2024_02_19_ml1\2024_02_19_cbz00_15.txt
Data Source:  Experiment
Instrument Model:  CHI650E
Header: 
Note: 

Init E (V) = 0.5
Final E (V) = 1.2
Incr E (V) = 0.004
Amplitude (V) = 0.025
Frequency (Hz) = 15
Quiet Time (sec) = 5
Sensitivity (A/V) = 1e-5

Difference:

Forward:

Reverse:

Potential/V, Diff(i/A), For(i/A), Rev(i/A)

0.504, -9.970e-7, -1.013e-6, -1.623e-8
0.508, -9.739e-7, -9.780e-7, -4.143e-9
0.512, -9.810e-7, -9.813e-7, -3.184e-10
0.516, -9.985e-7, -1.009e-6, -1.101e-8
0.520, -1.008e-6, -1.021e-6, -1.336e-8
0.524, -1.034e-6, -1.060e-6, -2.616e-8
0.528, -1.041e-6, -1.075e-6, -3.388e-8
0.532, -1.074e-6, -1.119e-6, -4.514e-8
0.536, -1.076e-6, -1.133e-6, -5.756e-8
0.540, -1.107e-6, -1.177e-6, -7.001e-8
0.544, -1.116e-6, -1.196e-6, -8.006e-8
0.548, -1.150e-6, -1.241e-6, -9.141e-8
0.552, -1.153e-6, -1.257e-6, -1.038e-7
0.556, -1.189e-6, -1.306e-6, -1.176e-7
0.560, -1.189e-6, -1.318e-6, -1.287e-7
0.564, -1.224e-6, -1.366e-6, -1.421e-7
0.568, -1.226e-6, -1.383e-6, -1.570e-7
0.572, -1.259e-6, -1.430e-6, -1.707e-7
0.576, -1.264e-6, -1.448e-6, -1.837e-7
0.580, -1.297e-6, -1.494e-6, -1.964e-7
0.584, -1.293e-6, -1.508e-6, -2.157e-7
0.588, -1.327e-6, -1.554e-6, -2.275e-7
0.592, -1.331e-6, -1.572e-6, -2.412e-7
0.596, -1.359e-6, -1.616e-6, -2.566e-7
0.600, -1.362e-6, -1.632e-6, -2.698e-7
0.604, -1.391e-6, -1.678e-6, -2.873e-7
0.608, -1.393e-6, -1.692e-6, -2.996e-7
0.612, -1.419e-6, -1.736e-6, -3.174e-7
0.616, -1.427e-6, -1.755e-6, -3.281e-7
0.620, -1.445e-6, -1.795e-6, -3.504e-7
0.624, -1.457e-6, -1.817e-6, -3.600e-7
0.628, -1.472e-6, -1.852e-6, -3.797e-7
0.632, -1.487e-6, -1.882e-6, -3.949e-7
0.636, -1.486e-6, -1.905e-6, -4.187e-7
0.640, -1.516e-6, -1.943e-6, -4.268e-7
0.644, -1.519e-6, -1.965e-6, -4.463e-7
0.648, -1.540e-6, -2.000e-6, -4.594e-7
0.652, -1.542e-6, -2.020e-6, -4.784e-7
0.656, -1.568e-6, -2.062e-6, -4.942e-7
0.660, -1.570e-6, -2.083e-6, -5.129e-7
0.664, -1.595e-6, -2.123e-6, -5.282e-7
0.668, -1.597e-6, -2.144e-6, -5.471e-7
0.672, -1.619e-6, -2.184e-6, -5.647e-7
0.676, -1.623e-6, -2.209e-6, -5.867e-7
0.680, -1.651e-6, -2.246e-6, -5.955e-7
0.684, -1.654e-6, -2.272e-6, -6.180e-7
0.688, -1.677e-6, -2.315e-6, -6.383e-7
0.692, -1.678e-6, -2.340e-6, -6.618e-7
0.696, -1.706e-6, -2.383e-6, -6.768e-7
0.700, -1.709e-6, -2.408e-6, -6.993e-7
0.704, -1.731e-6, -2.451e-6, -7.195e-7
0.708, -1.742e-6, -2.482e-6, -7.399e-7
0.712, -1.764e-6, -2.523e-6, -7.589e-7
0.716, -1.766e-6, -2.551e-6, -7.854e-7
0.720, -1.793e-6, -2.596e-6, -8.025e-7
0.724, -1.801e-6, -2.630e-6, -8.287e-7
0.728, -1.824e-6, -2.668e-6, -8.447e-7
0.732, -1.831e-6, -2.706e-6, -8.748e-7
0.736, -1.855e-6, -2.746e-6, -8.911e-7
0.740, -1.871e-6, -2.790e-6, -9.189e-7
0.744, -1.882e-6, -2.819e-6, -9.373e-7
0.748, -1.901e-6, -2.869e-6, -9.687e-7
0.752, -1.910e-6, -2.901e-6, -9.912e-7
0.756, -1.939e-6, -2.955e-6, -1.016e-6
0.760, -1.940e-6, -2.981e-6, -1.040e-6
0.764, -1.970e-6, -3.039e-6, -1.069e-6
0.768, -1.972e-6, -3.066e-6, -1.093e-6
0.772, -2.004e-6, -3.129e-6, -1.125e-6
0.776, -2.006e-6, -3.158e-6, -1.152e-6
0.780, -2.038e-6, -3.214e-6, -1.177e-6
0.784, -2.040e-6, -3.249e-6, -1.210e-6
0.788, -2.078e-6, -3.311e-6, -1.233e-6
0.792, -2.072e-6, -3.344e-6, -1.271e-6
0.796, -2.104e-6, -3.398e-6, -1.294e-6
0.800, -2.112e-6, -3.443e-6, -1.332e-6
0.804, -2.144e-6, -3.499e-6, -1.355e-6
0.808, -2.147e-6, -3.544e-6, -1.396e-6
0.812, -2.179e-6, -3.599e-6, -1.420e-6
0.816, -2.187e-6, -3.651e-6, -1.464e-6
0.820, -2.210e-6, -3.700e-6, -1.490e-6
0.824, -2.223e-6, -3.757e-6, -1.534e-6
0.828, -2.242e-6, -3.805e-6, -1.563e-6
0.832, -2.271e-6, -3.868e-6, -1.597e-6
0.836, -2.277e-6, -3.916e-6, -1.639e-6
0.840, -2.313e-6, -3.975e-6, -1.662e-6
0.844, -2.313e-6, -4.028e-6, -1.715e-6
0.848, -2.349e-6, -4.084e-6, -1.734e-6
0.852, -2.358e-6, -4.145e-6, -1.787e-6
0.856, -2.386e-6, -4.201e-6, -1.815e-6
0.860, -2.406e-6, -4.269e-6, -1.863e-6
0.864, -2.415e-6, -4.318e-6, -1.903e-6
0.868, -2.447e-6, -4.390e-6, -1.942e-6
0.872, -2.465e-6, -4.448e-6, -1.983e-6
0.876, -2.498e-6, -4.519e-6, -2.021e-6
0.880, -2.510e-6, -4.580e-6, -2.070e-6
0.884, -2.536e-6, -4.644e-6, -2.108e-6
0.888, -2.563e-6, -4.717e-6, -2.155e-6
0.892, -2.575e-6, -4.771e-6, -2.196e-6
0.896, -2.613e-6, -4.853e-6, -2.240e-6
0.900, -2.618e-6, -4.903e-6, -2.285e-6
0.904, -2.660e-6, -4.991e-6, -2.331e-6
0.908, -2.667e-6, -5.045e-6, -2.379e-6
0.912, -2.714e-6, -5.134e-6, -2.421e-6
0.916, -2.719e-6, -5.194e-6, -2.475e-6
0.920, -2.758e-6, -5.277e-6, -2.519e-6
0.924, -2.770e-6, -5.342e-6, -2.573e-6
0.928, -2.811e-6, -5.430e-6, -2.619e-6
0.932, -2.824e-6, -5.497e-6, -2.673e-6
0.936, -2.871e-6, -5.588e-6, -2.717e-6
0.940, -2.879e-6, -5.656e-6, -2.777e-6
0.944, -2.928e-6, -5.748e-6, -2.820e-6
0.948, -2.941e-6, -5.820e-6, -2.879e-6
0.952, -2.987e-6, -5.911e-6, -2.924e-6
0.956, -2.993e-6, -5.981e-6, -2.987e-6
0.960, -3.043e-6, -6.075e-6, -3.032e-6
0.964, -3.061e-6, -6.151e-6, -3.090e-6
0.968, -3.110e-6, -6.254e-6, -3.145e-6
0.972, -3.128e-6, -6.329e-6, -3.202e-6
0.976, -3.177e-6, -6.436e-6, -3.259e-6
0.980, -3.196e-6, -6.511e-6, -3.316e-6
0.984, -3.247e-6, -6.624e-6, -3.377e-6
0.988, -3.269e-6, -6.703e-6, -3.434e-6
0.992, -3.318e-6, -6.814e-6, -3.496e-6
0.996, -3.348e-6, -6.901e-6, -3.553e-6
1.000, -3.404e-6, -7.021e-6, -3.617e-6
1.004, -3.428e-6, -7.107e-6, -3.679e-6
1.008, -3.486e-6, -7.230e-6, -3.744e-6
1.012, -3.515e-6, -7.324e-6, -3.808e-6
1.016, -3.575e-6, -7.449e-6, -3.875e-6
1.020, -3.605e-6, -7.547e-6, -3.943e-6
1.024, -3.675e-6, -7.680e-6, -4.005e-6
1.028, -3.706e-6, -7.784e-6, -4.078e-6
1.032, -3.773e-6, -7.921e-6, -4.148e-6
1.036, -3.804e-6, -8.030e-6, -4.226e-6
1.040, -3.878e-6, -8.168e-6, -4.290e-6
1.044, -3.919e-6, -8.285e-6, -4.367e-6
1.048, -3.991e-6, -8.426e-6, -4.435e-6
1.052, -4.027e-6, -8.548e-6, -4.521e-6
1.056, -4.102e-6, -8.692e-6, -4.590e-6
1.060, -4.141e-6, -8.820e-6, -4.679e-6
1.064, -4.218e-6, -8.965e-6, -4.748e-6
1.068, -4.260e-6, -9.100e-6, -4.840e-6
1.072, -4.333e-6, -9.245e-6, -4.912e-6
1.076, -4.381e-6, -9.387e-6, -5.007e-6
1.080, -4.456e-6, -9.534e-6, -5.077e-6
1.084, -4.506e-6, -9.684e-6, -5.178e-6
1.088, -4.579e-6, -9.832e-6, -5.253e-6
1.092, -4.636e-6, -9.988e-6, -5.352e-6
1.096, -4.712e-6, -1.014e-5, -5.430e-6
1.100, -4.767e-6, -1.030e-5, -5.530e-6
1.104, -4.858e-6, -1.047e-5, -5.616e-6
1.108, -4.927e-6, -1.065e-5, -5.721e-6
1.112, -5.020e-6, -1.083e-5, -5.810e-6
1.116, -5.100e-6, -1.102e-5, -5.915e-6
1.120, -5.197e-6, -1.121e-5, -6.010e-6
1.124, -5.290e-6, -1.141e-5, -6.120e-6
1.128, -5.398e-6, -1.162e-5, -6.221e-6
1.132, -5.505e-6, -1.184e-5, -6.336e-6
1.136, -5.625e-6, -1.207e-5, -6.440e-6
1.140, -5.740e-6, -1.231e-5, -6.566e-6
1.144, -5.866e-6, -1.255e-5, -6.683e-6
1.148, -5.996e-6, -1.280e-5, -6.808e-6
1.152, -6.140e-6, -1.307e-5, -6.930e-6
1.156, -6.286e-6, -1.335e-5, -7.061e-6
1.160, -6.435e-6, -1.363e-5, -7.194e-6
1.164, -6.592e-6, -1.392e-5, -7.331e-6
1.168, -6.764e-6, -1.423e-5, -7.464e-6
1.172, -6.926e-6, -1.454e-5, -7.615e-6
1.176, -7.105e-6, -1.486e-5, -7.760e-6
1.180, -7.279e-6, -1.520e-5, -7.920e-6
1.184, -7.471e-6, -1.555e-5, -8.076e-6
1.188, -7.649e-6, -1.591e-5, -8.257e-6
1.192, -7.863e-6, -1.628e-5, -8.417e-6
1.196, -8.041e-6, -1.665e-5, -8.613e-6
1.200, -8.260e-6, -1.705e-5, -8.787e-6
