Feb. 19, 2024   12:55:14
Square Wave Voltammetry
File: c:\users\fu\desktop\noel\2024_02_19_ml1\2024_02_19_cbz00_13.txt
Data Source:  Experiment
Instrument Model:  CHI650E
Header: 
Note: 

Init E (V) = 0.5
Final E (V) = 1.2
Incr E (V) = 0.004
Amplitude (V) = 0.025
Frequency (Hz) = 15
Quiet Time (sec) = 5
Sensitivity (A/V) = 1e-5

Difference:

Forward:

Reverse:

Potential/V, Diff(i/A), For(i/A), Rev(i/A)

0.504, -8.571e-7, -1.031e-6, -1.742e-7
0.508, -8.476e-7, -1.015e-6, -1.673e-7
0.512, -8.677e-7, -1.029e-6, -1.610e-7
0.516, -8.779e-7, -1.062e-6, -1.840e-7
0.520, -9.117e-7, -1.100e-6, -1.879e-7
0.524, -9.168e-7, -1.128e-6, -2.110e-7
0.528, -9.486e-7, -1.170e-6, -2.209e-7
0.532, -9.669e-7, -1.204e-6, -2.374e-7
0.536, -9.940e-7, -1.249e-6, -2.545e-7
0.540, -1.027e-6, -1.286e-6, -2.585e-7
0.544, -1.034e-6, -1.318e-6, -2.836e-7
0.548, -1.075e-6, -1.357e-6, -2.820e-7
0.552, -1.082e-6, -1.391e-6, -3.087e-7
0.556, -1.116e-6, -1.437e-6, -3.217e-7
0.560, -1.128e-6, -1.460e-6, -3.326e-7
0.564, -1.148e-6, -1.510e-6, -3.622e-7
0.568, -1.172e-6, -1.537e-6, -3.656e-7
0.572, -1.188e-6, -1.582e-6, -3.943e-7
0.576, -1.217e-6, -1.617e-6, -4.004e-7
0.580, -1.224e-6, -1.651e-6, -4.266e-7
0.584, -1.264e-6, -1.697e-6, -4.330e-7
0.588, -1.269e-6, -1.717e-6, -4.474e-7
0.592, -1.289e-6, -1.761e-6, -4.714e-7
0.596, -1.306e-6, -1.785e-6, -4.782e-7
0.600, -1.331e-6, -1.835e-6, -5.039e-7
0.604, -1.348e-6, -1.858e-6, -5.095e-7
0.608, -1.356e-6, -1.898e-6, -5.418e-7
0.612, -1.385e-6, -1.930e-6, -5.450e-7
0.616, -1.378e-6, -1.960e-6, -5.822e-7
0.620, -1.415e-6, -2.004e-6, -5.889e-7
0.624, -1.418e-6, -2.026e-6, -6.082e-7
0.628, -1.444e-6, -2.075e-6, -6.309e-7
0.632, -1.460e-6, -2.099e-6, -6.393e-7
0.636, -1.466e-6, -2.135e-6, -6.688e-7
0.640, -1.494e-6, -2.165e-6, -6.713e-7
0.644, -1.493e-6, -2.192e-6, -6.991e-7
0.648, -1.522e-6, -2.227e-6, -7.052e-7
0.652, -1.515e-6, -2.248e-6, -7.327e-7
0.656, -1.543e-6, -2.292e-6, -7.483e-7
0.660, -1.541e-6, -2.310e-6, -7.690e-7
0.664, -1.570e-6, -2.362e-6, -7.920e-7
0.668, -1.585e-6, -2.385e-6, -7.999e-7
0.672, -1.598e-6, -2.431e-6, -8.324e-7
0.676, -1.624e-6, -2.461e-6, -8.368e-7
0.680, -1.632e-6, -2.500e-6, -8.682e-7
0.684, -1.654e-6, -2.528e-6, -8.739e-7
0.688, -1.652e-6, -2.565e-6, -9.127e-7
0.692, -1.671e-6, -2.595e-6, -9.244e-7
0.696, -1.667e-6, -2.623e-6, -9.554e-7
0.700, -1.709e-6, -2.675e-6, -9.663e-7
0.704, -1.709e-6, -2.700e-6, -9.906e-7
0.708, -1.725e-6, -2.740e-6, -1.015e-6
0.712, -1.741e-6, -2.770e-6, -1.029e-6
0.716, -1.759e-6, -2.822e-6, -1.062e-6
0.720, -1.773e-6, -2.842e-6, -1.068e-6
0.724, -1.791e-6, -2.895e-6, -1.104e-6
0.728, -1.797e-6, -2.916e-6, -1.119e-6
0.732, -1.810e-6, -2.967e-6, -1.157e-6
0.736, -1.838e-6, -3.001e-6, -1.163e-6
0.740, -1.848e-6, -3.053e-6, -1.205e-6
0.744, -1.881e-6, -3.090e-6, -1.209e-6
0.748, -1.868e-6, -3.130e-6, -1.262e-6
0.752, -1.907e-6, -3.179e-6, -1.273e-6
0.756, -1.904e-6, -3.219e-6, -1.315e-6
0.760, -1.941e-6, -3.273e-6, -1.332e-6
0.764, -1.947e-6, -3.314e-6, -1.367e-6
0.768, -1.976e-6, -3.366e-6, -1.390e-6
0.772, -1.976e-6, -3.401e-6, -1.426e-6
0.776, -2.008e-6, -3.463e-6, -1.455e-6
0.780, -2.014e-6, -3.500e-6, -1.485e-6
0.784, -2.041e-6, -3.556e-6, -1.515e-6
0.788, -2.053e-6, -3.597e-6, -1.544e-6
0.792, -2.084e-6, -3.664e-6, -1.580e-6
0.796, -2.095e-6, -3.700e-6, -1.605e-6
0.800, -2.114e-6, -3.762e-6, -1.648e-6
0.804, -2.134e-6, -3.804e-6, -1.670e-6
0.808, -2.152e-6, -3.868e-6, -1.716e-6
0.812, -2.181e-6, -3.915e-6, -1.734e-6
0.816, -2.189e-6, -3.975e-6, -1.786e-6
0.820, -2.221e-6, -4.029e-6, -1.808e-6
0.824, -2.219e-6, -4.074e-6, -1.855e-6
0.828, -2.256e-6, -4.145e-6, -1.889e-6
0.832, -2.261e-6, -4.195e-6, -1.933e-6
0.836, -2.299e-6, -4.266e-6, -1.967e-6
0.840, -2.302e-6, -4.312e-6, -2.010e-6
0.844, -2.335e-6, -4.390e-6, -2.054e-6
0.848, -2.354e-6, -4.445e-6, -2.091e-6
0.852, -2.380e-6, -4.518e-6, -2.138e-6
0.856, -2.415e-6, -4.584e-6, -2.169e-6
0.860, -2.416e-6, -4.643e-6, -2.227e-6
0.864, -2.454e-6, -4.713e-6, -2.259e-6
0.868, -2.459e-6, -4.773e-6, -2.314e-6
0.872, -2.500e-6, -4.856e-6, -2.357e-6
0.876, -2.511e-6, -4.907e-6, -2.396e-6
0.880, -2.539e-6, -4.989e-6, -2.450e-6
0.884, -2.553e-6, -5.047e-6, -2.494e-6
0.888, -2.593e-6, -5.139e-6, -2.546e-6
0.892, -2.614e-6, -5.193e-6, -2.579e-6
0.896, -2.637e-6, -5.283e-6, -2.646e-6
0.900, -2.670e-6, -5.353e-6, -2.684e-6
0.904, -2.684e-6, -5.431e-6, -2.746e-6
0.908, -2.731e-6, -5.512e-6, -2.780e-6
0.912, -2.734e-6, -5.587e-6, -2.853e-6
0.916, -2.771e-6, -5.669e-6, -2.898e-6
0.920, -2.791e-6, -5.741e-6, -2.950e-6
0.924, -2.828e-6, -5.835e-6, -3.008e-6
0.928, -2.864e-6, -5.913e-6, -3.049e-6
0.932, -2.881e-6, -5.996e-6, -3.115e-6
0.936, -2.937e-6, -6.090e-6, -3.153e-6
0.940, -2.946e-6, -6.165e-6, -3.219e-6
0.944, -2.985e-6, -6.256e-6, -3.271e-6
0.948, -3.005e-6, -6.335e-6, -3.330e-6
0.952, -3.055e-6, -6.447e-6, -3.392e-6
0.956, -3.079e-6, -6.521e-6, -3.442e-6
0.960, -3.112e-6, -6.622e-6, -3.510e-6
0.964, -3.144e-6, -6.706e-6, -3.562e-6
0.968, -3.166e-6, -6.799e-6, -3.634e-6
0.972, -3.213e-6, -6.899e-6, -3.686e-6
0.976, -3.240e-6, -6.988e-6, -3.748e-6
0.980, -3.281e-6, -7.089e-6, -3.808e-6
0.984, -3.304e-6, -7.169e-6, -3.865e-6
0.988, -3.346e-6, -7.285e-6, -3.940e-6
0.992, -3.394e-6, -7.383e-6, -3.989e-6
0.996, -3.416e-6, -7.482e-6, -4.067e-6
1.000, -3.463e-6, -7.587e-6, -4.124e-6
1.004, -3.479e-6, -7.682e-6, -4.203e-6
1.008, -3.529e-6, -7.795e-6, -4.266e-6
1.012, -3.566e-6, -7.898e-6, -4.332e-6
1.016, -3.615e-6, -8.019e-6, -4.405e-6
1.020, -3.664e-6, -8.119e-6, -4.455e-6
1.024, -3.705e-6, -8.240e-6, -4.535e-6
1.028, -3.751e-6, -8.350e-6, -4.598e-6
1.032, -3.788e-6, -8.466e-6, -4.678e-6
1.036, -3.843e-6, -8.589e-6, -4.746e-6
1.040, -3.884e-6, -8.700e-6, -4.816e-6
1.044, -3.944e-6, -8.841e-6, -4.896e-6
1.048, -3.995e-6, -8.964e-6, -4.969e-6
1.052, -4.045e-6, -9.105e-6, -5.060e-6
1.056, -4.109e-6, -9.235e-6, -5.126e-6
1.060, -4.149e-6, -9.364e-6, -5.215e-6
1.064, -4.229e-6, -9.521e-6, -5.292e-6
1.068, -4.279e-6, -9.645e-6, -5.367e-6
1.072, -4.352e-6, -9.809e-6, -5.456e-6
1.076, -4.425e-6, -9.954e-6, -5.529e-6
1.080, -4.484e-6, -1.012e-5, -5.633e-6
1.084, -4.562e-6, -1.028e-5, -5.716e-6
1.088, -4.638e-6, -1.045e-5, -5.811e-6
1.092, -4.724e-6, -1.063e-5, -5.910e-6
1.096, -4.816e-6, -1.081e-5, -5.995e-6
1.100, -4.914e-6, -1.101e-5, -6.097e-6
1.104, -5.019e-6, -1.121e-5, -6.190e-6
1.108, -5.120e-6, -1.141e-5, -6.293e-6
1.112, -5.237e-6, -1.163e-5, -6.394e-6
1.116, -5.344e-6, -1.184e-5, -6.499e-6
1.120, -5.465e-6, -1.209e-5, -6.622e-6
1.124, -5.592e-6, -1.232e-5, -6.728e-6
1.128, -5.735e-6, -1.259e-5, -6.854e-6
1.132, -5.876e-6, -1.284e-5, -6.967e-6
1.136, -6.035e-6, -1.313e-5, -7.099e-6
1.140, -6.181e-6, -1.341e-5, -7.231e-6
1.144, -6.349e-6, -1.371e-5, -7.357e-6
1.148, -6.523e-6, -1.402e-5, -7.494e-6
1.152, -6.708e-6, -1.433e-5, -7.621e-6
1.156, -6.883e-6, -1.466e-5, -7.778e-6
1.160, -7.088e-6, -1.501e-5, -7.918e-6
1.164, -7.278e-6, -1.536e-5, -8.084e-6
1.168, -7.498e-6, -1.574e-5, -8.242e-6
1.172, -7.701e-6, -1.611e-5, -8.414e-6
1.176, -7.928e-6, -1.651e-5, -8.583e-6
1.180, -8.151e-6, -1.691e-5, -8.759e-6
1.184, -8.380e-6, -1.733e-5, -8.948e-6
1.188, -8.612e-6, -1.774e-5, -9.130e-6
1.192, -8.851e-6, -1.818e-5, -9.328e-6
1.196, -9.094e-6, -1.862e-5, -9.524e-6
1.200, -9.325e-6, -1.906e-5, -9.730e-6
