Feb. 19, 2024   15:35:22
Square Wave Voltammetry
File: c:\users\fu\desktop\noel\2024_02_19_ml1\2024_02_19_cbz08_23.txt
Data Source:  Experiment
Instrument Model:  CHI650E
Header: 
Note: 

Init E (V) = 0.5
Final E (V) = 1.2
Incr E (V) = 0.004
Amplitude (V) = 0.025
Frequency (Hz) = 15
Quiet Time (sec) = 5
Sensitivity (A/V) = 1e-5

Difference:

Forward:

Reverse:

Potential/V, Diff(i/A), For(i/A), Rev(i/A)

0.504, -1.138e-6, -1.283e-6, -1.448e-7
0.508, -1.124e-6, -1.262e-6, -1.386e-7
0.512, -1.140e-6, -1.284e-6, -1.445e-7
0.516, -1.163e-6, -1.330e-6, -1.670e-7
0.520, -1.179e-6, -1.358e-6, -1.794e-7
0.524, -1.234e-6, -1.422e-6, -1.878e-7
0.528, -1.269e-6, -1.469e-6, -2.005e-7
0.532, -1.294e-6, -1.512e-6, -2.182e-7
0.536, -1.316e-6, -1.567e-6, -2.503e-7
0.540, -1.351e-6, -1.615e-6, -2.645e-7
0.544, -1.405e-6, -1.677e-6, -2.720e-7
0.548, -1.431e-6, -1.722e-6, -2.914e-7
0.552, -1.464e-6, -1.773e-6, -3.095e-7
0.556, -1.484e-6, -1.830e-6, -3.461e-7
0.560, -1.515e-6, -1.875e-6, -3.608e-7
0.564, -1.561e-6, -1.935e-6, -3.740e-7
0.568, -1.587e-6, -1.986e-6, -3.984e-7
0.572, -1.620e-6, -2.036e-6, -4.153e-7
0.576, -1.648e-6, -2.097e-6, -4.492e-7
0.580, -1.668e-6, -2.135e-6, -4.670e-7
0.584, -1.700e-6, -2.186e-6, -4.855e-7
0.588, -1.728e-6, -2.239e-6, -5.105e-7
0.592, -1.775e-6, -2.299e-6, -5.245e-7
0.596, -1.784e-6, -2.343e-6, -5.596e-7
0.600, -1.805e-6, -2.384e-6, -5.788e-7
0.604, -1.831e-6, -2.432e-6, -6.018e-7
0.608, -1.850e-6, -2.473e-6, -6.223e-7
0.612, -1.897e-6, -2.539e-6, -6.420e-7
0.616, -1.905e-6, -2.577e-6, -6.720e-7
0.620, -1.921e-6, -2.616e-6, -6.946e-7
0.624, -1.948e-6, -2.664e-6, -7.161e-7
0.628, -1.965e-6, -2.704e-6, -7.387e-7
0.632, -2.009e-6, -2.767e-6, -7.577e-7
0.636, -2.026e-6, -2.807e-6, -7.812e-7
0.640, -2.043e-6, -2.846e-6, -8.037e-7
0.644, -2.059e-6, -2.901e-6, -8.423e-7
0.648, -2.077e-6, -2.940e-6, -8.632e-7
0.652, -2.115e-6, -2.991e-6, -8.760e-7
0.656, -2.139e-6, -3.045e-6, -9.063e-7
0.660, -2.159e-6, -3.092e-6, -9.326e-7
0.664, -2.177e-6, -3.146e-6, -9.685e-7
0.668, -2.191e-6, -3.186e-6, -9.953e-7
0.672, -2.225e-6, -3.237e-6, -1.013e-6
0.676, -2.241e-6, -3.286e-6, -1.045e-6
0.680, -2.283e-6, -3.348e-6, -1.065e-6
0.684, -2.297e-6, -3.403e-6, -1.106e-6
0.688, -2.315e-6, -3.449e-6, -1.134e-6
0.692, -2.337e-6, -3.507e-6, -1.169e-6
0.696, -2.365e-6, -3.564e-6, -1.199e-6
0.700, -2.402e-6, -3.629e-6, -1.228e-6
0.704, -2.425e-6, -3.680e-6, -1.255e-6
0.708, -2.446e-6, -3.734e-6, -1.288e-6
0.712, -2.471e-6, -3.797e-6, -1.327e-6
0.716, -2.480e-6, -3.848e-6, -1.368e-6
0.720, -2.540e-6, -3.922e-6, -1.382e-6
0.724, -2.553e-6, -3.979e-6, -1.426e-6
0.728, -2.582e-6, -4.037e-6, -1.455e-6
0.732, -2.595e-6, -4.108e-6, -1.513e-6
0.736, -2.616e-6, -4.162e-6, -1.546e-6
0.740, -2.655e-6, -4.228e-6, -1.573e-6
0.744, -2.674e-6, -4.294e-6, -1.620e-6
0.748, -2.710e-6, -4.364e-6, -1.654e-6
0.752, -2.723e-6, -4.431e-6, -1.708e-6
0.756, -2.741e-6, -4.485e-6, -1.744e-6
0.760, -2.770e-6, -4.556e-6, -1.786e-6
0.764, -2.790e-6, -4.623e-6, -1.832e-6
0.768, -2.841e-6, -4.710e-6, -1.868e-6
0.772, -2.850e-6, -4.769e-6, -1.918e-6
0.776, -2.879e-6, -4.835e-6, -1.956e-6
0.780, -2.896e-6, -4.917e-6, -2.021e-6
0.784, -2.922e-6, -4.985e-6, -2.063e-6
0.788, -2.947e-6, -5.057e-6, -2.109e-6
0.792, -2.972e-6, -5.130e-6, -2.158e-6
0.796, -3.009e-6, -5.215e-6, -2.205e-6
0.800, -3.029e-6, -5.289e-6, -2.260e-6
0.804, -3.052e-6, -5.362e-6, -2.310e-6
0.808, -3.073e-6, -5.449e-6, -2.376e-6
0.812, -3.097e-6, -5.519e-6, -2.423e-6
0.816, -3.128e-6, -5.607e-6, -2.479e-6
0.820, -3.149e-6, -5.692e-6, -2.543e-6
0.824, -3.190e-6, -5.776e-6, -2.586e-6
0.828, -3.199e-6, -5.863e-6, -2.664e-6
0.832, -3.226e-6, -5.945e-6, -2.719e-6
0.836, -3.254e-6, -6.034e-6, -2.780e-6
0.840, -3.275e-6, -6.118e-6, -2.844e-6
0.844, -3.325e-6, -6.222e-6, -2.897e-6
0.848, -3.347e-6, -6.311e-6, -2.964e-6
0.852, -3.378e-6, -6.400e-6, -3.022e-6
0.856, -3.382e-6, -6.492e-6, -3.110e-6
0.860, -3.417e-6, -6.588e-6, -3.171e-6
0.864, -3.456e-6, -6.686e-6, -3.230e-6
0.868, -3.476e-6, -6.781e-6, -3.305e-6
0.872, -3.532e-6, -6.900e-6, -3.367e-6
0.876, -3.556e-6, -7.001e-6, -3.445e-6
0.880, -3.580e-6, -7.100e-6, -3.520e-6
0.884, -3.615e-6, -7.205e-6, -3.591e-6
0.888, -3.640e-6, -7.305e-6, -3.665e-6
0.892, -3.691e-6, -7.423e-6, -3.732e-6
0.896, -3.726e-6, -7.528e-6, -3.802e-6
0.900, -3.768e-6, -7.644e-6, -3.876e-6
0.904, -3.796e-6, -7.760e-6, -3.964e-6
0.908, -3.827e-6, -7.863e-6, -4.036e-6
0.912, -3.878e-6, -7.982e-6, -4.104e-6
0.916, -3.899e-6, -8.090e-6, -4.192e-6
0.920, -3.964e-6, -8.223e-6, -4.259e-6
0.924, -3.988e-6, -8.339e-6, -4.351e-6
0.928, -4.019e-6, -8.447e-6, -4.428e-6
0.932, -4.068e-6, -8.576e-6, -4.508e-6
0.936, -4.113e-6, -8.699e-6, -4.585e-6
0.940, -4.172e-6, -8.831e-6, -4.659e-6
0.944, -4.211e-6, -8.956e-6, -4.745e-6
0.948, -4.244e-6, -9.071e-6, -4.827e-6
0.952, -4.296e-6, -9.200e-6, -4.904e-6
0.956, -4.326e-6, -9.325e-6, -4.999e-6
0.960, -4.404e-6, -9.471e-6, -5.068e-6
0.964, -4.442e-6, -9.603e-6, -5.161e-6
0.968, -4.492e-6, -9.737e-6, -5.245e-6
0.972, -4.546e-6, -9.876e-6, -5.331e-6
0.976, -4.602e-6, -1.001e-5, -5.413e-6
0.980, -4.665e-6, -1.016e-5, -5.496e-6
0.984, -4.710e-6, -1.031e-5, -5.602e-6
0.988, -4.761e-6, -1.044e-5, -5.683e-6
0.992, -4.837e-6, -1.060e-5, -5.765e-6
0.996, -4.886e-6, -1.075e-5, -5.860e-6
1.000, -4.975e-6, -1.092e-5, -5.942e-6
1.004, -5.022e-6, -1.107e-5, -6.052e-6
1.008, -5.093e-6, -1.123e-5, -6.136e-6
1.012, -5.169e-6, -1.140e-5, -6.230e-6
1.016, -5.240e-6, -1.157e-5, -6.327e-6
1.020, -5.335e-6, -1.175e-5, -6.417e-6
1.024, -5.414e-6, -1.194e-5, -6.523e-6
1.028, -5.480e-6, -1.210e-5, -6.625e-6
1.032, -5.576e-6, -1.230e-5, -6.724e-6
1.036, -5.654e-6, -1.248e-5, -6.830e-6
1.040, -5.766e-6, -1.270e-5, -6.929e-6
1.044, -5.845e-6, -1.288e-5, -7.036e-6
1.048, -5.931e-6, -1.308e-5, -7.146e-6
1.052, -6.020e-6, -1.328e-5, -7.258e-6
1.056, -6.107e-6, -1.347e-5, -7.366e-6
1.060, -6.216e-6, -1.368e-5, -7.468e-6
1.064, -6.301e-6, -1.388e-5, -7.580e-6
1.068, -6.386e-6, -1.407e-5, -7.683e-6
1.072, -6.455e-6, -1.427e-5, -7.812e-6
1.076, -6.543e-6, -1.446e-5, -7.916e-6
1.080, -6.635e-6, -1.465e-5, -8.018e-6
1.084, -6.714e-6, -1.485e-5, -8.136e-6
1.088, -6.819e-6, -1.506e-5, -8.243e-6
1.092, -6.901e-6, -1.527e-5, -8.370e-6
1.096, -6.995e-6, -1.548e-5, -8.481e-6
1.100, -7.106e-6, -1.570e-5, -8.597e-6
1.104, -7.210e-6, -1.593e-5, -8.721e-6
1.108, -7.357e-6, -1.620e-5, -8.839e-6
1.112, -7.475e-6, -1.645e-5, -8.977e-6
1.116, -7.604e-6, -1.672e-5, -9.112e-6
1.120, -7.770e-6, -1.701e-5, -9.241e-6
1.124, -7.924e-6, -1.731e-5, -9.389e-6
1.128, -8.118e-6, -1.764e-5, -9.524e-6
1.132, -8.284e-6, -1.796e-5, -9.679e-6
1.136, -8.473e-6, -1.831e-5, -9.833e-6
1.140, -8.681e-6, -1.867e-5, -9.993e-6
1.144, -8.892e-6, -1.905e-5, -1.016e-5
1.148, -9.133e-6, -1.946e-5, -1.032e-5
1.152, -9.368e-6, -1.987e-5, -1.050e-5
1.156, -9.619e-6, -2.030e-5, -1.068e-5
1.160, -9.881e-6, -2.075e-5, -1.087e-5
1.164, -1.015e-5, -2.122e-5, -1.107e-5
1.168, -1.046e-5, -2.172e-5, -1.126e-5
1.172, -1.076e-5, -2.223e-5, -1.147e-5
1.176, -1.108e-5, -2.277e-5, -1.169e-5
1.180, -1.140e-5, -2.333e-5, -1.192e-5
1.184, -1.175e-5, -2.390e-5, -1.216e-5
1.188, -1.212e-5, -2.451e-5, -1.239e-5
1.192, -1.250e-5, -2.514e-5, -1.264e-5
1.196, -1.288e-5, -2.578e-5, -1.289e-5
1.200, -1.328e-5, -2.645e-5, -1.317e-5
